1893
1902
1890
1887
1886
1889
1909
1914
1894
1889
1897
1879
1880
1887
1904
1900
1889
1889
1897
1906
1914
1936
1965
1987
1984
1983
1999
2037
2060
2056
2076
2091
2062
2036
2032
2019
1991
1949
1915
1893
1865
1837
1831
1848
1849
1855
1858
1860
1854
1847
1846
1854
1848
1840
1833
1831
1827
1816
1774
1759
1805
1981
2344
2943
3645
4083
4107
3861
3431
2890
2465
2247
2075
1882
1697
1574
1518
1514
1504
1480
1459
1449
1464
1490
1498
1510
1527
1543
1559
1576
1599
1641
1666
1672
1700
1733
1748
1768
1780
1809
1844
1878
1910
1951
1978
1978
1979
1987
1999
1988
1974
1958
1956
1940
1915
1918
1910
1881
1858
1835
1817
1794
1760
1743
1739
1722
1704
1720
1744
1765
1778
1801
1810
1821
1831
1841
1860
1876
1867
1880
1893
1902
1897
1901
1906
1910
1892
1880
1891
1885
1884
1875
1891
1886
1871
1861
1883
1876
1858
1861
1875
1884
1884
1895
1904
1899
1880
1895
1914
1940
1963
1998
2018
2032
2048
2076
2103
2124
2146
2148
2148
2122
2082
2030
1986
1926
1885
1862
1851
1846
1844
1834
1824
1830
1813
1812
1827
1843
1849
1850
1852
1855
1857
1841
1844
1833
1813
1813
1955
2273
2791
3480
4048
4186
3985
3585
3059
2605
2362
2210
2055
1862
1699
1607
1591
1580
1581
1562
1570
1584
1595
1595
1617
1632
1647
1649
1664
1690
1708
1706
1743
1784
1814
1823
1855
1875
1886
1895
1925
1962
1994
2015
2035
2058
2054
2054
2031
2025
2018
2006
1979
1970
1952
1932
1906
1885
1859
1829
1784
1760
1739
1721
1699
1706
1728
1740
1739
1771
1813
1830
1843
1878
1886
1878
1869
1877
1890
1900
1900
1905
1909
1914
1894
1892
1890
1888
1868
1878
1885
1899
1906
1917
1922
1906
1891
1868
1863
1858
1864
1858
1868
1873
1877
1871
1890
1902
1899
1898
1945
1969
1980
2000
2028
2035
2043
2069
2119
2164
2178
2187
2218
2217
2167
2108
2063
1992
1904
1847
1840
1821
1810
1816
1848
1837
1850
1848
1850
1838
1841
1828
1841
1848
1848
1832
1832
1805
1766
1717
1715
1823
2101
2572
3273
3993
4311
4201
3848
3336
2766
2375
2175
2012
1804
1628
1518
1481
1467
1445
1405
1402
1424
1452
1491
1524
1535
1528
1538
1546
1566
1598
1639
1666
1672
1664
1686
1718
1749
1783
1825
1867
1882
1875
1903
1942
1955
1972
2004
2002
1987
1965
1957
1946
1946
1939
1934
1908
1867
1815
1774
1748
1753
1742
1707
1693
1692
1663
1642
1662
1692
1693
1709
1756
1802
1832
1858
1867
1863
1859
1846
1857
1880
1911
1918
1916
1899
1904
1913
1924
1942
1942
1928
1907
1895
1884
1888
1889
1903
1914
1918
1934
1957
1965
1947
1937
1930
1930
1941
1966
1984
2000
1993
1995
2024
2061
2073
2064
2077
2096
2095
2104
2149
2151
2096
2036
2016
1973
1915
1870
1845
1808
1775
1789
1824
1865
1865
1868
1858
1854
1839
1842
1852
1863
1846
1830
1837
1846
1838
1833
1820
1851
2021
2387
3627
4003
3933
3660
3301
2855
2539
2418
2293
2069
1840
1697
1640
1623
1592
1562
1555
1577
1574
1598
1623
1638
1648
1666
1698
1709
1724
1739
1769
1791
1808
1842
1881
1914
1916
1942
1965
1989
1988
2000
2017
2030
2024
2025
2037
2046
2032
2008
2007
1995
1960
1924
1916
1905
1876
1855
1851
1834
1796
1768
1758
1744
1731
1727
1752
1777
1796
1808
1832
1855
1855
1867
1889
1922
1924
1933
1940
1945
1923
1906
1905
1913
1917
1921
1944
1935
1917
1905
1914
1912
1930
1933
1933
1915
1902
1890
1884
1885
1895
1895
1895
1928
1951
1951
1962
1988
2000
2001
2037
2084
2128
2158
2188
2198
2187
2150
2080
2033
1995
1936
1873
1848
1829
1792
1772
1785
1801
1799
1795
1807
1804
1792
1790
1807
1815
1830
1829
1827
1825
1806
1761
1729
1780
1978
2334
2909
3674
4264
4408
4204
3786
3195
2659
2330
2143
1953
1764
1604
1525
1503
1488
1470
1472
1485
1484
1500
1528
1545
1552
1572
1600
1615
1620
1621
1642
1674
1683
1699
1732
1757
1757
1782
1821
1844
1865
1881
1906
1921
1930
1920
1928
1924
1913
1902
1912
1917
1909
1893
1892
1891
1863
1829
1804
1788
1747
1725
1705
1715
1719
1723
1730
1769
1792
1794
1819
1861
1872
1874
1888
1896
1885
1887
1901
1920
1921
1919
1934
1934
1930
1930
1936
1934
1940
1919
1928
1931
1910
1896
1900
1900
1896
1887
1874
1876
1873
1865
1861
1876
1874
1874
1888
1910
1909
1913
1916
1923
1936
1936
1944
1963
1982
1994
2028
2069
2102
2129
2154
2162
2153
2137
2092
2057
2032
1987
1933
1895
1856
1813
1785
1774
1771
1772
1779
1789
1802
1796
1778
1784
1778
1771
1784
1800
1804
1819
1817
1785
1766
1778
1910
2227
2763
3465
4093
4310
4143
3740
3180
2630
2298
2106
1950
1777
1624
1531
1500
1482
1459
1447
1443
1443
1463
1478
1475
1466
1492
1499
1518
1545
1584
1628
1663
1674
1706
1738
1723
1714
1744
1763
1778
1818
1866
1907
1910
1911
1921
1931
1917
1927
1941
1938
1907
1901
1890
1871
1836
1809
1780
1764
1748
1734
1725
1724
1696
1671
1669
1693
1703
1727
1767
1801
1813
1822
1837
1857
1882
1886
1897
1911
1904
1889
1885
1891
1891
1880
1883
1903
1909
1912
1922
1923
1909
1891
1885
1893
1886
1868
1862
1861
1854
1859
1873
1895
1908
1891
1883
1903
1907
1897
1905
1924
1931
1936
1951
1959
1952
1929
1919
1919
1922
1921
1932
1951
1987
2025
2056
2079
2085
2071
2071
2107
2138
2163
2169
2171
2160
2140
2098
2077
2033
1984
1935
1907
1885
1863
1838
1842
1857
1870
1878
1885
1884
1876
1859
1867
1888
1888
1877
1881
1886
1878
1841
1814
1843
2017
2342
2888
3609
4205
4356
4153
3759
3220
2688
2354
2178
1994
1781
1628
1565
1532
1520
1513
1502
1502
1514
1508
1521
1539
1538
1553
1586
1599
1601
1625
1644
1666
1680
1699
1732
1759
1766
1788
1811
1828
1839
1860
1897
1934
1944
1961
2003
1990
1970
1955
1951
1923
1921
1904
1898
1880
1855
1814
1793
1786
1762
1737
1728
1723
1704
1689
1699
1729
1747
1751
1782
1803
1813
1812
1825
1838
1848
1853
1877
1900
1897
1894
1895
1901
1898
1901
1892
1898
1910
1922
1925
1943
1941
1919
1900
1910
1903
1891
1893
1896
1894
1905
1926
1935
1933
1911
1905
1915
1914
1910
1917
1922
1929
1945
1986
2032
2068
2070
2067
2066
2059
2026
2031
2057
2079
2082
2091
2067
2050
2017
1980
1966
1965
1929
1899
1894
1890
1874
1887
1889
1888
1888
1892
1887
1899
1908
1914
1913
1925
1924
1928
1923
1922
1890
1850
1902
2124
2490
3052
3773
4275
4317
4072
3650
3109
2631
2351
2171
1991
1782
1634
1580
1577
1567
1540
1518
1523
1534
1519
1544
1575
1593
1594
1637
1650
1656
1663
1684
1707
1734
1762
1774
1797
1816
1830
1847
1878
1906
1927
1941
1957
1979
1972
1977
1994
1993
1964
1959
1936
1927
1913
1904
1881
1863
1823
1791
1772
1762
1727
1697
1694
1695
1693
1708
1750
1773
1788
1787
1800
1814
1823
1837
1867
1899
1901
1902
1897
1902
1904
1905
1907
1916
1923
1910
1903
1898
1906
1896
1896
1915
1932
1923
1922
1920
1911
1893
1892
1891
1896
1891
1901
1898
1896
1898
1894
1902
1942
1971
1988
2024
2042
2033
2023
2033
2020
2001
1978
1984
1985
1985
1991
1996
2000
1995
1981
1972
1976
1939
1900
1893
1888
1882
1886
1905
1927
1921
1916
1925
1931
1923
1933
1939
1954
1950
1945
1939
1942
1927
1902
1875
1863
1958
2236
2715
3408
4079
4350
4213
3864
3337
2777
2421
2246
2082
1866
1686
1600
1559
1520
1514
1514
1499
1500
1514
1531
1552
1573
1591
1605
1618
1615
1635
1666
1709
1720
1754
1763
1772
1774
1795
1827
1872
1897
1923
1955
1978
1989
1996
1992
1996
1977
1963
1969
1968
1947
1927
1891
1862
1840
1805
1785
1781
1749
1724
1718
1712
1684
1676
1669
1690
1691
1715
1749
1784
1794
1813
1828
1849
1858
1856
1873
1897
1896
1889
1892
1901
1903
1892
1901
1925
1935
1919
1921
1926
1916
1905
1914
1915
1917
1905
1894
1894
1896
1876
1871
1874
1870
1872
1888
1901
1919
1916
1917
1914
1901
1882
1881
1882
1906
1917
1922
1946
1949
1939
1935
1954
1959
1974
1963
1971
1954
1930
1913
1932
1965
1996
2012
2019
2031
2018
1996
1995
2016
2023
2039
2054
2076
2072
2051
2032
2017
1992
1965
1950
1943
1932
1910
1903
1913
1907
1913
1914
1921
1911
1896
1888
1905
1911
1920
1933
1954
1951
1936
1904
1877
1833
1822
1933
2231
2732
3425
4091
4387
4269
3893
3356
2812
2440
2234
2063
1867
1691
1593
1551
1529
1504
1478
1469
1484
1502
1525
1540
1549
1570
1597
1606
1627
1654
1662
1657
1678
1707
1743
1764
1798
1825
1850
1851
1878
1915
1947
1955
1960
1978
1982
1974
1974
1988
1984
1957
1934
1926
1911
1880
1858
1842
1806
1765
1741
1733
1723
1700
1695
1689
1685
1685
1708
1746
1764
1777
1780
1811
1831
1845
1850
1860
1865
1846
1858
1883
1901
1880
1885
1884
1886
1882
1878
1875
1886
1880
1888
1910
1913
1909
1898
1900
1898
1895
1887
1904
1898
1896
1896
1900
1893
1890
1887
1885
1890
1897
1896
1899
1901
1887
1885
1906
1928
1936
1929
1913
1919
1924
1918
1947
1979
1975
1966
1977
1985
1990
1983
1981
1997
2016
2014
2029
2048
2051
2042
2076
2113
2141
2143
2133
2114
2078
2027
2011
1982
1931
1878
1855
1841
1855
1851
1855
1867
1869
1849
1853
1870
1880
1879
1894
1908
1918
1910
1904
1880
1873
1844
1810
1844
2036
2381
2950
3691
4223
4289
4035
3608
3062
2606
2371
2226
2049
1835
1663
1584
1574
1548
1535
1526
1537
1524
1530
1541
1572
1587
1605
1621
1632
1655
1663
1698
1737
1740
1731
1748
1778
1793
1815
1830
1862
1869
1889
1918
1969
1993
2007
2013
2019
2001
1980
1968
1950
1941
1930
1904
1883
1872
1844
1819
1799
1769
1730
1681
1653
1638
1631
1643
1687
1708
1721
1734
1746
1759
1770
1792
1819
1847
1848
1857
1858
1870
1865
1851
1864
1881
1870
1863
1874
1879
1869
1871
1882
1893
1883
1872
1873
1879
1883
1874
1886
1887
1887
1874
1884
1901
1906
1894
1905
1932
1943
1945
1951
1959
1941
1920
1917
1935
1942
1927
1937
1957
1951
1938
1943
1941
1940
1936
1943
1964
1995
2010
2024
2048
2082
2085
2079
2096
2133
2152
2169
2205
2231
2214
2159
2123
2085
2031
1969
1941
1912
1883
1862
1855
1859
1855
1847
1848
1853
1842
1836
1860
1874
1881
1874
1879
1876
1869
1847
1842
1832
1815
1918
2226
2726
3416
4041
4258
4089
3726
3203
2706
2406
2241
2059
1852
1677
1587
1562
1547
1535
1520
1515
1520
1551
1559
1568
1576
1604
1621
1638
1645
1672
1692
1692
1711
1754
1768
1772
1797
1838
1871
1895
1921
1955
1979
1989
2000
2020
2035
2023
1999
1993
1973
1941
1913
1922
1920
1902
1870
1837
1804
1762
1738
1733
1740
1709
1686
1665
1670
1685
1693
1737
1771
1769
1753
1775
1789
1813
1831
1866
1902
1898
1883
1885
1891
1887
1886
1900
1919
1917
1894
1896
1894
1883
1876
1878
1874
1866
1870
1874
1880
1891
1898
1887
1885
1905
1900
1887
1892
1892
1864
1868
1880
1893
1887
1910
1910
1924
1913
1912
1900
1901
1892
1890
1908
1924
1931
1932
1955
1950
1946
1953
1974
1978
1982
1972
1966
1970
1962
1978
2001
2038
2044
2066
2072
2083
2072
2076
2090
2106
2119
2123
2135
2130
2097
2058
2028
1985
1936
1903
1892
1893
1886
1880
1880
1886
1877
1864
1858
1871
1879
1880
1871
1888
1884
1864
1853
1862
1837
1800
1778
1864
2106
2516
3142
3878
4330
4327
4041
3564
