=====================================
         Báo Cáo ECG Bệnh Nhân       
=====================================
Tên bệnh nhân: Viet Binh
ID bệnh nhân: 000
Thời gian ghi: 20250623_155126
-------------------------------------
Thời gian thu thập: 120 giây
Tần số lấy mẫu: 200 Hz
Số mẫu: 24000
-------------------------------------
Kết quả QRS Detection:
  Số đỉnh QRS: 173
  Nhịp tim: 86 bpm
  Tỷ lệ QRS detect đúng: 1.441667
  Trạng thái nhịp tim: Đều
-------------------------------------
Dữ liệu 120 giây sau lọc:
  Giá trị: 1782, 1659, 1589, 1549, 1521, 1521, 1533, 1546, 1547, 1555, 1569, 1582, 1596, 1628, 1651, 1643, 1642, 1663, 1691, 1718, 1753, 1789, 1811, 1808, 1811, 1835, 1863, 1884, 1917, 1963, 1989, 1976, 1957, 1957, 1952, 1935, 1936, 1949, 1942, 1915, 1898, 1882, 1851, 1814, 1788, 1773, 1773, 1770, 1766, 1769, 1772, 1763, 1760, 1776, 1791, 1798, 1810, 1827, 1837, 1852, 1875, 1893, 1903, 1910, 1910, 1912, 1911, 1899, 1878, 1859, 1844, 1832, 1831, 1840, 1855, 1873, 1887, 1907, 1931, 1945, 1951, 1951, 1950, 1959, 1983, 2001, 2016, 2028, 2035, 2030, 2017, 1992, 1959, 1931, 1900, 1874, 1863, 1862, 1854, 1841, 1827, 1830, 1841, 1837, 1834, 1855, 1866, 1854, 1853, 1863, 1867, 1864, 1867, 1873, 1869, 1852, 1898, 2085, 2455, 3037, 3674, 4053, 4097, 3880, 3436, 2894, 2491, 2249, 2055, 1874, 1742, 1661, 1607, 1585, 1578, 1580, 1582, 1583, 1580, 1584, 1598, 1616, 1651, 1693, 1723, 1735, 1748, 1767, 1780, 1784, 1796, 1822, 1846, 1874, 1914, 1951, 1975, 2000, 2024, 2045, 2057, 2064, 2058, 2045, 2033, 2028, 2032, 2037, 2026, 2000, 1981, 1967, 1944, 1923, 1913, 1893, 1864, 1847, 1849, 1857, 1852, 1846, 1852, 1860, 1862, 1874, 1897, 1920, 1922, 1922, 1933, 1941, 1932, 1938, 1960, 1976, 1966, 1951, 1940, 1930, 1911, 1904, 1913, 1923, 1916, 1905, 1906, 1906, 1893, 1887, 1911, 1939, 1955, 1976, 2001, 2006, 1995, 1985, 1986, 2001, 2010, 2023, 2050, 2073, 2064, 2039, 2021, 1994, 1951, 1909, 1886, 1875, 1866, 1856, 1858, 1864, 1863, 1864, 1875, 1878, 1870, 1865, 1863, 1863, 1865, 1870, 1879, 1889, 1891, 1884, 1883, 1925, 2066, 2359, 2881, 3520, 3944, 4028, 3861, 3457, 2911, 2464, 2212, 2050, 1895, 1756, 1669, 1624, 1593, 1567, 1556, 1556, 1569, 1591, 1617, 1633, 1649, 1672, 1690, 1711, 1740, 1763, 1772, 1782, 1797, 1813, 1834, 1858, 1883, 1903, 1925, 1953, 1973, 1982, 2002, 2016, 2019, 2024, 2032, 2019, 2001, 1985, 1979, 1974, 1967, 1952, 1932, 1909, 1883, 1854, 1835, 1825, 1814, 1803, 1799, 1789, 1784, 1783, 1783, 1799, 1828, 1848, 1866, 1887, 1895, 1894, 1897, 1897, 1894, 1895, 1895, 1885, 1875, 1874, 1868, 1862, 1866, 1874, 1879, 1888, 1895, 1902, 1916, 1924, 1930, 1934, 1934, 1934, 1951, 1972, 1994, 2009, 2003, 1988, 1995, 2031, 2070, 2102, 2120, 2117, 2088, 2055, 2028, 1998, 1958, 1919, 1900, 1892, 1882, 1884, 1897, 1896, 1886, 1885, 1882, 1873, 1869, 1872, 1869, 1866, 1865, 1864, 1866, 1872, 1872, 1869, 1863, 1903, 2062, 2387, 2905, 3469, 3794, 3802, 3582, 3167, 2688, 2343, 2138, 1980, 1824, 1688, 1600, 1570, 1562, 1559, 1564, 1578, 1601, 1618, 1627, 1637, 1651, 1663, 1679, 1695, 1718, 1729, 1744, 1767, 1784, 1790, 1810, 1846, 1880, 1901, 1920, 1944, 1958, 1973, 2004, 2036, 2039, 2018, 1985, 1959, 1952, 1949, 1947, 1953, 1952, 1930, 1900, 1876, 1858, 1836, 1815, 1805, 1788, 1770, 1751, 1732, 1723, 1738, 1760, 1775, 1784, 1795, 1798, 1801, 1822, 1854, 1868, 1869, 1875, 1876, 1864, 1853, 1852, 1851, 1843, 1844, 1855, 1860, 1846, 1832, 1829, 1830, 1826, 1824, 1834, 1852, 1868, 1890, 1923, 1953, 1979, 1984, 1979, 1970, 1965, 1963, 1991, 2030, 2064, 2079, 2072, 2029, 1977, 1929, 1881, 1851, 1832, 1811, 1795, 1792, 1777, 1769, 1780, 1792, 1786, 1784, 1806, 1827, 1807, 1770, 1745, 1722, 1700, 1705, 1737, 1769, 1779, 1872, 2150, 2630, 3227, 3688, 3825, 3682, 3336, 2851, 2438, 2219, 2082, 1942, 1797, 1692, 1625, 1572, 1533, 1528, 1542, 1558, 1589, 1622, 1635, 1645, 1670, 1684, 1681, 1683, 1696, 1705, 1722, 1750, 1778, 1810, 1836, 1850, 1871, 1898, 1917, 1939, 1979, 2009, 2027, 2036, 2034, 2030, 2031, 2032, 2026, 2023, 2020, 2000, 1975, 1970, 1954, 1904, 1858, 1843, 1826, 1798, 1784, 1781, 1776, 1772, 1784, 1801, 1805, 1796, 1797, 1823, 1852, 1877, 1899, 1912, 1909, 1899, 1899, 1908, 1911, 1908, 1912, 1931, 1936, 1914, 1896, 1892, 1873, 1857, 1873, 1891, 1895, 1905, 1921, 1939, 1959, 1978, 1982, 1987, 1993, 2010, 2034, 2067, 2088, 2090, 2078, 2047, 1998, 1944, 1894, 1845, 1806, 1784, 1773, 1767, 1765, 1761, 1753, 1755, 1761, 1765, 1771, 1781, 1777, 1768, 1764, 1758, 1755, 1758, 1759, 1747, 1742, 1821, 2046, 2477, 3105, 3685, 3944, 3888, 3583, 3084, 2603, 2302, 2124, 1960, 1798, 1673, 1605, 1579, 1575, 1572, 1566, 1564, 1574, 1591, 1612, 1622, 1630, 1650, 1673, 1696, 1721, 1740, 1739, 1731, 1733, 1750, 1772, 1803, 1845, 1886, 1919, 1947, 1971, 1990, 2007, 2026, 2037, 2032, 2019, 2004, 1982, 1961, 1949, 1935, 1912, 1889, 1864, 1840, 1835, 1815, 1798, 1778, 1765, 1737, 1729, 1733, 1748, 1757, 1774, 1807, 1831, 1852, 1876, 1885, 1875, 1873, 1881, 1884, 1893, 1902, 1905, 1891, 1874, 1870, 1877, 1873, 1869, 1881, 1892, 1901, 1911, 1932, 1950, 1958, 1966, 1977, 1983, 1992, 2011, 2027, 2047, 2069, 2082, 2085, 2080, 2063, 2032, 1976, 1913, 1866, 1831, 1808, 1808, 1817, 1811, 1797, 1799, 1800, 1789, 1788, 1800, 1803, 1809, 1819, 1822, 1819, 1813, 1803, 1798, 1794, 1819, 1948, 2241, 2751, 3389, 3840, 3948, 3786, 3405, 2888, 2481, 2247, 2091, 1935, 1786, 1676, 1626, 1600, 1581, 1571, 1571, 1577, 1592, 1612, 1625, 1633, 1650, 1674, 1695, 1715, 1742, 1764, 1779, 1788, 1803, 1828, 1857, 1878, 1909, 1948, 1979, 1997, 2022, 2042, 2051, 2052, 2055, 2064, 2067, 2049, 2031, 2025, 2014, 1993, 1977, 1965, 1939, 1902, 1872, 1848, 1813, 1778, 1758, 1755, 1762, 1776, 1792, 1800, 1806, 1817, 1837, 1864, 1891, 1909, 1922, 1926, 1915, 1901, 1895, 1890, 1881, 1880, 1876, 1870, 1862, 1859, 1864, 1876, 1891, 1905, 1921, 1935, 1943, 1941, 1945, 1960, 1977, 1996, 2017, 2039, 2054, 2055, 2057, 2047, 2017, 1968, 1908, 1861, 1842, 1836, 1833, 1837, 1829, 1801, 1781, 1782, 1791, 1798, 1810, 1828, 1834, 1833, 1841, 1858, 1866, 1859, 1854, 1846, 1850, 1950, 2232, 2742, 3400, 3901, 4059, 3929, 3566, 3044, 2604, 2356, 2203, 2054, 1887, 1767, 1723, 1714, 1712, 1724, 1736, 1728, 1718, 1722, 1742, 1775, 1801, 1823, 1850, 1866, 1878, 1902, 1936, 1961, 1984, 1995, 2007, 2013, 2014, 2030, 2078, 2118, 2145, 2183, 2214, 2213, 2202, 2208, 2214, 2211, 2200, 2198, 2191, 2170, 2149, 2131, 2111, 2081, 2061, 2050, 2054, 2057, 2053, 2041, 2037, 2034, 2028, 2036, 2057, 2074, 2088, 2111, 2135, 2152, 2160, 2179, 2205, 2206, 2193, 2192, 2191, 2180, 2183, 2195, 2197, 2186, 2175, 2175, 2186, 2198, 2218, 2247, 2270, 2279, 2286, 2299, 2311, 2323, 2334, 2340, 2329, 2297, 2258, 2217, 2169, 2118, 2074, 2038, 2011, 1997, 1998, 1999, 2004, 2004, 1996, 1973, 1952, 1931, 1918, 1913, 1915, 1918, 1917, 1917, 1916, 1915, 1898, 1886, 1970, 2220, 2679, 3322, 3873, 4102, 4030, 3716, 3217, 2755, 2453, 2244, 2059, 1887, 1753, 1681, 1649, 1633, 1622, 1623, 1642, 1671, 1690, 1704, 1729, 1754, 1769, 1790, 1817, 1831, 1835, 1845, 1864, 1887, 1905, 1919, 1937, 1954, 1972, 1990, 2020, 2052, 2074, 2087, 2102, 2106, 2094, 2086, 2079, 2066, 2056, 2047, 2032, 2016, 1994, 1965, 1935, 1907, 1878, 1853, 1839, 1837, 1832, 1815, 1809, 1807, 1804, 1805, 1823, 1837, 1846, 1851, 1863, 1880, 1888, 1895, 1901, 1898, 1890, 1890, 1887, 1874, 1862, 1863, 1869, 1873, 1878, 1892, 1898, 1895, 1890, 1899, 1912, 1928, 1948, 1970, 1984, 1975, 1946, 1903, 1861, 1814, 1770, 1736, 1714, 1695, 1686, 1681, 1675, 1676, 1683, 1689, 1700, 1727, 1737, 1715, 1697, 1697, 1693, 1692, 1707, 1718, 1701, 1678, 1737, 1938, 2341, 2955, 3539, 3837, 3842, 3589, 3100, 2598, 2254, 2021, 1828, 1669, 1547, 1468, 1439, 1424, 1403, 1394, 1405, 1422, 1446, 1464, 1483, 1502, 1526, 1543, 1568, 1599, 1628, 1636, 1640, 1652, 1664, 1680, 1714, 1759, 1795, 1810, 1823, 1841, 1865, 1895, 1915, 1917, 1909, 1892, 1872, 1871, 1874, 1875, 1876, 1879, 1859, 1820, 1779, 1749, 1728, 1719, 1715, 1709, 1698, 1679, 1667, 1678, 1700, 1716, 1739, 1776, 1812, 1839, 1857, 1871, 1880, 1886, 1894, 1903, 1909, 1907, 1904, 1901, 1899, 1888, 1878, 1878, 1893, 1910, 1925, 1944, 1960, 1959, 1961, 1969, 1979, 1999, 2021, 2045, 2063, 2075, 2072, 2062, 2033, 1988, 1935, 1896, 1870, 1848, 1839, 1842, 1839, 1828, 1830, 1847, 1863, 1869, 1869, 1875, 1876, 1872, 1862, 1864, 1877, 1881, 1872, 1868, 1859, 1882, 2018, 2337, 2874, 3498, 3916, 4021, 3869, 3475, 2960, 2559, 2302, 2099, 1911, 1761, 1663, 1620, 1598, 1587, 1578, 1572, 1570, 1593, 1627, 1649, 1661, 1680, 1693, 1697, 1709, 1730, 1751, 1766, 1782, 1801, 1815, 1825, 1839, 1856, 1879, 1914, 1947, 1980, 2009, 2025, 2020, 2016, 2011, 2002, 1989, 1995, 2005, 1988, 1956, 1934, 1898, 1851, 1824, 1816, 1803, 1789, 1776, 1766, 1766, 1774, 1779, 1785, 1796, 1801, 1805, 1822, 1854, 1875, 1887, 1901, 1917, 1928, 1936, 1942, 1937, 1918, 1886, 1864, 1859, 1861, 1863, 1876, 1890, 1883, 1864, 1858, 1871, 1897, 1918, 1941, 1956, 1947, 1927, 1919, 1932, 1952, 1965, 1973, 1979, 1974, 1960, 1940, 1922, 1899, 1870, 1842, 1819, 1798, 1791, 1789, 1792, 1790, 1782, 1772, 1760, 1755, 1757, 1767, 1768, 1766, 1759, 1759, 1769, 1779, 1782, 1782, 1787, 1825, 1994, 2360, 2942, 3531, 3848, 3847, 3624, 3195, 2717, 2398, 2218, 2053, 1874, 1711, 1618, 1576, 1545, 1513, 1510, 1520, 1520, 1526, 1550, 1574, 1597, 1623, 1655, 1673, 1677, 1672, 1675, 1684, 1691, 1701, 1728, 1761, 1791, 1823, 1857, 1883, 1896, 1911, 1932, 1952, 1959, 1957, 1949, 1937, 1921, 1910, 1909, 1909, 1908, 1899, 1877, 1848, 1812, 1778, 1759, 1752, 1751, 1751, 1746, 1734, 1729, 1735, 1752, 1777, 1803, 1830, 1853, 1865, 1875, 1884, 1891, 1893, 1892, 1893, 1898, 1902, 1896, 1882, 1866, 1856, 1847, 1843, 1844, 1852, 1862, 1879, 1905, 1940, 1959, 1954, 1936, 1920, 1913, 1920, 1938, 1957, 1968, 1971, 1959, 1944, 1924, 1893, 1849, 1822, 1803, 1785, 1778, 1786, 1798, 1801, 1798, 1803, 1811, 1811, 1810, 1819, 1822, 1816, 1814, 1816, 1814, 1806, 1793, 1777, 1793, 1912, 2189, 2681, 3328, 3844, 4039, 3948, 3603, 3070, 2592, 2289, 2090, 1918, 1763, 1642, 1567, 1527, 1511, 1519, 1534, 1543, 1542, 1551, 1567, 1579, 1598, 1617, 1632, 1642, 1653, 1672, 1701, 1720, 1729, 1752, 1779, 1799, 1817, 1847, 1879, 1902, 1919, 1938, 1954, 1952, 1935, 1923, 1923, 1919, 1914, 1922, 1924, 1908, 1879, 1856, 1835, 1801, 1760, 1729, 1704, 1681, 1671, 1676, 1688, 1700, 1709, 1725, 1741, 1748, 1754, 1772, 1788, 1795, 1801, 1807, 1817, 1824, 1831, 1840, 1846, 1831, 1811, 1802, 1804, 1799, 1788, 1793, 1809, 1827, 1846, 1876, 1900, 1910, 1894, 1871, 1854, 1854, 1862, 1876, 1905, 1935, 1948, 1951, 1956, 1948, 1923, 1898, 1881, 1864, 1842, 1824, 1820, 1817, 1815, 1816, 1820, 1818, 1817, 1824, 1843, 1859, 1855, 1839, 1837, 1835, 1831, 1830, 1837, 1831, 1835, 1931, 2190, 2649, 3279, 3829, 4067, 4001, 3682, 3164, 2684, 2374, 2160, 1974, 1820, 1701, 1624, 1585, 1574, 1567, 1554, 1542, 1556, 1579, 1594, 1601, 1617, 1634, 1645, 1649, 1667, 1701, 1727, 1740, 1756, 1777, 1786, 1799, 1832, 1872, 1901, 1931, 1960, 1974, 1984, 1992, 1993, 1982, 1963, 1938, 1927, 1926, 1924, 1920, 1916, 1902, 1878, 1847, 1817, 1792, 1767, 1752, 1751, 1763, 1769, 1767, 1762, 1764, 1778, 1808, 1839, 1858, 1867, 1869, 1875, 1891, 1908, 1924, 1938, 1943, 1936, 1930, 1927, 1920, 1912, 1900, 1889, 1881, 1883, 1885, 1892, 1899, 1901, 1903, 1919, 1950, 1984, 2003, 1998, 1990, 1972, 1962, 1968, 1989, 1998, 2012, 2018, 2020, 2017, 2004, 1980, 1957, 1934, 1908, 1878, 1853, 1829, 1812, 1806, 1819, 1836, 1842, 1833, 1819, 1811, 1815, 1829, 1837, 1839, 1838, 1838, 1842, 1858, 1863, 1858, 1914, 2111, 2486, 3064, 3651, 3955, 3926, 3670, 3236, 2767, 2435, 2229, 2059, 1880, 1720, 1624, 1591, 1579, 1562, 1553, 1561, 1572, 1574, 1570, 1578, 1598, 1622, 1645, 1670, 1691, 1700, 1706, 1715, 1736, 1747, 1751, 1760, 1785, 1811, 1839, 1875, 1907, 1923, 1932, 1940, 1934, 1930, 1930, 1926, 1913, 1906, 1897, 1889, 1884, 1881, 1874, 1872, 1868, 1852, 1822, 1797, 1783, 1772, 1756, 1757, 1773, 1782, 1788, 1807, 1838, 1860, 1876, 1895, 1918, 1933, 1948, 1960, 1966, 1959, 1939, 1923, 1915, 1905, 1905, 1912, 1903, 1896, 1893, 1892, 1901, 1919, 1936, 1964, 2004, 2026, 2033, 2033, 2024, 2006, 2004, 2020, 2039, 2053, 2054, 2043, 2022, 1994, 1959, 1922, 1889, 1861, 1831, 1804, 1796, 1791, 1780, 1777, 1778, 1779, 1786, 1801, 1820, 1831, 1829, 1827, 1833, 1835, 1836, 1841, 1844, 1833, 1835, 1949, 2248, 2767, 3414, 3897, 4039, 3898, 3519, 2991, 2561, 2300, 2101, 1906, 1745, 1639, 1588, 1561, 1545, 1533, 1523, 1527, 1555, 1583, 1600, 1612, 1623, 1625, 1629, 1636, 1652, 1670, 1687, 1702, 1721, 1746, 1764, 1787, 1814, 1843, 1861, 1875, 1890, 1906, 1913, 1911, 1921, 1930, 1931, 1919, 1919, 1918, 1909, 1896, 1889, 1877, 1857, 1836, 1820, 1806, 1793, 1785, 1792, 1809, 1818, 1819, 1827, 1838, 1844, 1850, 1868, 1890, 1900, 1899, 1908, 1923, 1922, 1914, 1917, 1920, 1913, 1908, 1916, 1929, 1930, 1921, 1913, 1902, 1889, 1885, 1898, 1917, 1928, 1936, 1954, 1972, 1978, 1969, 1967, 1975, 1992, 2005, 2023, 2041, 2039, 2009, 1979, 1953, 1922, 1881, 1850, 1836, 1827, 1818, 1821, 1818, 1808, 1797, 1794, 1796, 1809, 1817, 1827, 1839, 1844, 1840, 1845, 1859, 1868, 1861, 1843, 1835, 1905, 2112, 2531, 3170, 3760, 4036, 4003, 3723, 3226, 2719, 2375, 2153, 1968, 1797, 1659, 1583, 1550, 1527, 1517, 1524, 1535, 1549, 1567, 1580, 1589, 1608, 1635, 1661, 1679, 1691, 1697, 1700, 1709, 1728, 1746, 1759, 1776, 1789, 1796, 1813, 1844, 1866, 1887, 1907, 1916, 1905, 1892, 1885, 1885, 1881, 1881, 1885, 1884, 1874, 1859, 1845, 1832, 1812, 1787, 1779, 1779, 1776, 1772, 1774, 1772, 1761, 1761, 1778, 1803, 1827, 1853, 1878, 1894, 1906, 1909, 1917, 1933, 1947, 1951, 1952, 1942, 1916, 1895, 1895, 1904, 1910, 1911, 1908, 1894, 1882, 1878, 1887, 1900, 1913, 1915, 1933, 1959, 1976, 1977, 1989, 1990, 1975, 1956, 1966, 1985, 2002, 2013, 2031, 2039, 2025, 1999, 1979, 1962, 1933, 1903, 1888, 1882, 1864, 1846, 1845, 1851, 1855, 1854, 1865, 1875, 1874, 1862, 1864, 1864, 1858, 1853, 1850, 1849, 1848, 1849, 1903, 2073, 2406, 2940, 3553, 3950, 4015, 3812, 3391, 2876, 2480, 2243, 2070, 1901, 1745, 1627, 1567, 1552, 1556, 1557, 1561, 1565, 1575, 1584, 1594, 1615, 1641, 1644, 1640, 1647, 1659, 1665, 1683, 1705, 1726, 1744, 1767, 1799, 1826, 1839, 1852, 1874, 1888, 1908, 1932, 1954, 1966, 1960, 1940, 1931, 1928, 1925, 1926, 1934, 1935, 1912, 1879, 1848, 1820, 1790, 1775, 1776, 1784, 1783, 1786, 1800, 1819, 1833, 1847, 1872, 1889, 1886, 1880, 1892, 1907, 1906, 1907, 1921, 1937, 1939, 1938, 1948, 1954, 1949, 1943, 1951, 1956, 1952, 1937, 1923, 1908, 1897, 1884, 1880, 1889, 1912, 1936, 1961, 1990, 2011, 2013, 2016, 2027, 2036, 2031, 2033, 2040, 2041, 2043, 2045, 2030, 1989, 1942, 1902, 1879, 1874, 1877, 1872, 1857, 1845, 1831, 1830, 1842, 1848, 1841, 1841, 1847, 1853, 1855, 1861, 1871, 1871, 1856, 1845, 1836, 1830, 1926, 2212, 2727, 3377, 3863, 3998, 3849, 3483, 2969, 2556, 2332, 2176, 1985, 1801, 1671, 1602, 1576, 1573, 1575, 1571, 1563, 1559, 1565, 1579, 1598, 1626, 1657, 1679, 1685, 1686, 1690, 1700, 1714, 1744, 1787, 1823, 1841, 1852, 1871, 1891, 1906, 1922, 1950, 1971, 1979, 1983, 1998, 2005, 1999, 1979, 1961, 1943, 1924, 1916, 1919, 1907, 1877, 1847, 1827, 1809, 1800, 1806, 1816, 1812, 1800, 1798, 1807, 1825, 1847, 1869, 1885, 1893, 1894, 1899, 1909, 1927, 1935, 1935, 1931, 1925, 1915, 1907, 1907, 1905, 1892, 1871, 1865, 1866, 1862, 1862, 1878, 1889, 1884, 1884, 1904, 1930, 1950, 1965, 1982, 2002, 2013, 2019, 2027, 2040, 2038, 2021, 2001, 1994, 1968, 1922, 1873, 1847, 1817, 1792, 1786, 1798, 1805, 1804, 1808, 1818, 1818, 1803, 1798, 1812, 1824, 1830, 1839, 1845, 1839, 1822, 1810, 1804, 1839, 1994, 2329, 2887, 3534, 3952, 4031, 3845, 3424, 2879, 2459, 2216, 2036, 1868, 1731, 1647, 1598, 1564, 1538, 1526, 1527, 1533, 1549, 1572, 1591, 1603, 1615, 1633, 1649, 1658, 1670, 1695, 1720, 1738, 1759, 1784, 1800, 1808, 1823, 1854, 1887, 1909, 1932, 1956, 1970, 1974, 1979, 1986, 1975, 1954, 1942, 1945, 1944, 1932, 1912, 1896, 1877, 1852, 1833, 1826, 1812, 1792, 1785, 1796, 1803, 1809, 1820, 1834, 1847, 1862, 1873, 1887, 1899, 1898, 1895, 1899, 1903, 1904, 1909, 1922, 1932, 1929, 1910, 1891, 1884, 1876, 1866, 1865, 1869, 1859, 1850, 1858, 1882, 1897, 1913, 1931, 1956, 1963, 1963, 1968, 1981, 1984, 1996, 2021, 2045, 2045, 2026, 2004, 1989, 1964, 1927, 1898, 1878, 1857, 1837, 1841, 1858, 1863, 1853, 1843, 1836, 1825, 1818, 1824, 1840, 1852, 1859, 1864, 1869, 1865, 1855, 1847, 1869, 1971, 2201, 2631, 3252, 3781, 3987, 3914, 3616, 3118, 2633, 2322, 2127, 1956, 1791, 1671, 1608, 1577, 1548, 1534, 1534, 1543, 1546, 1554, 1574, 1594, 1608, 1636, 1669, 1681, 1684, 1693, 1712, 1734, 1760, 1792, 1825, 1843, 1856, 1874, 1900, 1930, 1955, 1974, 2002, 2019, 2015, 2012, 2013, 2001, 1981, 1969, 1969, 1958, 1929, 1900, 1876, 1852, 1825, 1812, 1807, 1807, 1800, 1802, 1810, 1814, 1802, 1801, 1814, 1834, 1844, 1860, 1876, 1884, 1886, 1890, 1897, 1899, 1891, 1880, 1888, 1910, 1925, 1925, 1919, 1901, 1873, 1853, 1850, 1860, 1880, 1907, 1939, 1976, 2005, 2018, 2008, 1993, 1989, 2005, 2033, 2066, 2090, 2091, 2073, 2044, 2013, 1977, 1944, 1916, 1887, 1858, 1846, 1844, 1835, 1827, 1831, 1844, 1848, 1852, 1860, 1866, 1861, 1857, 1861, 1878, 1887, 1876, 1875, 1878, 1864, 1886, 2050, 2387, 2925, 3543, 3954, 4032, 3846, 3430, 2914, 2528, 2303, 2125, 1950, 1794, 1684, 1626, 1592, 1572, 1561, 1546, 1547, 1570, 1599, 1622, 1650, 1673, 1693, 1709, 1728, 1748, 1765, 1771, 1786, 1810, 1833, 1849, 1863, 1884, 1910, 1935, 1965, 1994, 2010, 2014, 2015, 2029, 2042, 2033, 2024, 2023, 2011, 1985, 1983, 1993, 1990, 1964, 1939, 1916, 1900, 1881, 1875, 1888, 1906, 1904, 1905, 1914, 1915, 1912, 1919, 1931, 1950, 1969, 1983, 1995, 2004, 2002, 2001, 2003, 2009, 2006, 2001, 2001, 2003, 1988, 1978, 1980, 1983, 1977, 1989, 2016, 2039, 2051, 2062, 2079, 2088, 2084, 2092, 2119, 2149, 2164, 2173, 2182, 2182, 2151, 2113, 2083, 2051, 2001, 1957, 1934, 1922, 1903, 1891, 1889, 1892, 1891, 1902, 1924, 1936, 1922, 1899, 1881, 1869, 1876, 1896, 1913, 1922, 1925, 1904, 1893, 1985, 2250, 2711, 3345, 3883, 4077, 3953, 3613, 3118, 2673, 2397, 2221, 2050, 1877, 1738, 1660, 1627, 1606, 1586, 1583, 1609, 1639, 1658, 1674, 1695, 1711, 1724, 1740, 1762, 1777, 1789, 1808, 1833, 1852, 1871, 1892, 1916, 1938, 1961, 1993, 2024, 2045, 2055, 2058, 2054, 2048, 2039, 2034, 2038, 2039, 2034, 2036, 2048, 2049, 2033, 2003, 1972, 1941, 1908, 1886, 1882, 1876, 1859, 1849, 1856, 1855, 1856, 1875, 1905, 1919, 1926, 1930, 1933, 1925, 1924, 1933, 1943, 1938, 1930, 1923, 1915, 1909, 1908, 1911, 1918, 1930, 1937, 1941, 1949, 1959, 1961, 1969, 1982, 1988, 1978, 1974, 1987, 2005, 2024, 2045, 2066, 2073, 2057, 2029, 1997, 1953, 1904, 1861, 1830, 1810, 1793, 1780, 1774, 1775, 1773, 1766, 1764, 1769, 1775, 1782, 1790, 1791, 1780, 1770, 1767, 1772, 1769, 1752, 1740, 1816, 2039, 2468, 3103, 3702, 3987, 3952, 3667, 3168, 2653, 2289, 2055, 1871, 1704, 1573, 1512, 1491, 1479, 1466, 1472, 1488, 1498, 1498, 1513, 1534, 1553, 1564, 1586, 1616, 1643, 1660, 1684, 1701, 1705, 1701, 1722, 1752, 1776, 1794, 1820, 1846, 1867, 1893, 1918, 1932, 1926, 1912, 1904, 1908, 1906, 1900, 1898, 1899, 1883, 1859, 1835, 1814, 1799, 1788, 1783, 1785, 1781, 1770, 1769, 1779, 1788, 1795, 1810, 1827, 1840, 1849, 1861, 1874, 1877, 1880, 1890, 1902, 1904, 1898, 1885, 1872, 1868, 1869, 1875, 1886, 1899, 1897, 1888, 1882, 1881, 1879, 1882, 1904, 1939, 1963, 1979, 1992, 1993, 1977, 1971, 1984, 1996, 2001, 2018, 2038, 2043, 2030, 2010, 1979, 1943, 1902, 1871, 1856, 1845, 1830, 1820, 1824, 1825, 1823, 1825, 1823, 1812, 1800, 1798, 1806, 1819, 1830, 1837, 1839, 1833, 1822, 1803, 1806, 1893, 2122, 2553, 3169, 3693, 3897, 3813, 3506, 3021, 2564, 2267, 2074, 1900, 1743, 1630, 1581, 1575, 1566, 1544, 1530, 1530, 1537, 1556, 1583, 1605, 1615, 1623, 1641, 1665, 1693, 1726, 1757, 1781, 1790, 1793, 1801, 1820, 1844, 1871, 1902, 1932, 1942, 1942, 1957, 1978, 1981, 1978, 1977, 1969, 1950, 1941, 1949, 1951, 1949, 1939, 1920, 1892, 1861, 1823, 1799, 1788, 1778, 1774, 1773, 1771, 1759, 1755, 1769, 1795, 1817, 1829, 1833, 1842, 1855, 1862, 1866, 1873, 1871, 1860, 1862, 1881, 1895, 1887, 1882, 1882, 1872, 1858, 1859, 1859, 1854, 1852, 1857, 1864, 1877, 1889, 1907, 1930, 1941, 1937, 1943, 1969, 2001, 2022, 2026, 2027, 2016, 1996, 1975, 1962, 1936, 1884, 1826, 1796, 1784, 1771, 1776, 1790, 1794, 1782, 1777, 1774, 1771, 1770, 1769, 1771, 1780, 1786, 1784, 1780, 1777, 1769, 1754, 1749, 1830, 2060, 2490, 3102, 3629, 3836, 3740, 3418, 2929, 2488, 2223, 2069, 1925, 1766, 1640, 1567, 1536, 1513, 1496, 1486, 1489, 1494, 1510, 1536, 1561, 1585, 1606, 1624, 1637, 1655, 1668, 1685, 1701, 1707, 1703, 1714, 1739, 1771, 1806, 1847, 1882, 1895, 1901, 1910, 1918, 1919, 1924, 1930, 1934, 1933, 1930, 1930, 1930, 1920, 1898, 1876, 1856, 1831, 1808, 1797, 1789, 1777, 1764, 1758, 1760, 1768, 1776, 1791, 1814, 1829, 1837, 1847, 1866, 1877, 1884, 1899, 1914, 1922, 1921, 1915, 1915, 1918, 1909, 1908, 1918, 1920, 1915, 1912, 1914, 1915, 1911, 1908, 1923, 1939, 1959, 1991, 2021, 2031, 2041, 2057, 2069, 2082, 2091, 2087, 2081, 2064, 2035, 2009, 1982, 1939, 1886, 1849, 1831, 1820, 1808, 1810, 1816, 1817, 1815, 1824, 1832, 1822, 1807, 1794, 1786, 1788, 1800, 1813, 1824, 1818, 1792, 1763, 1808, 1989, 2345, 2923, 3552, 3906, 3910, 3679, 3251, 2754, 2400, 2207, 2058, 1892, 1733, 1630, 1589, 1571, 1554, 1547, 1549, 1557, 1577, 1597, 1621, 1645, 1657, 1655, 1668, 1694, 1716, 1733, 1759, 1780, 1786, 1795, 1818, 1846, 1871, 1897, 1927, 1953, 1972, 1993, 2013, 2025, 2023, 2012, 1996, 1985, 1980, 1972, 1974, 1979, 1969, 1949, 1935, 1916, 1887, 1863, 1857, 1857, 1849, 1840, 1831, 1824, 1811, 1822, 1840, 1866, 1889, 1921, 1934, 1953, 1972, 1975, 1980, 1995, 1999, 1989, 1985, 1984, 1976, 1968, 1972, 1975, 1973, 1959, 1954, 1962, 1976, 1989, 2008, 2041, 2063, 2072, 2072, 2076, 2083, 2084, 2089, 2106, 2122, 2120, 2110, 2102, 2085, 2045, 2002, 1963, 1934, 1911, 1901, 1901, 1905, 1899, 1885, 1881, 1879, 1873, 1868, 1876, 1880, 1885, 1892, 1899, 1903, 1897, 1887, 1886, 1888, 1947, 2139, 2516, 3096, 3700, 4037, 4057, 3829, 3377, 2863, 2504, 2286, 2102, 1925, 1782, 1697, 1654, 1628, 1617, 1614, 1610, 1610, 1619, 1627, 1637, 1651, 1677, 1707, 1728, 1731, 1731, 1737, 1742, 1753, 1781, 1812, 1829, 1851, 1884, 1917, 1940, 1959, 1978, 1992, 1998, 2004, 2008, 2009, 1999, 1986, 1980, 1979, 1961, 1938, 1919, 1894, 1857, 1833, 1829, 1829, 1822, 1817, 1815, 1803, 1780, 1770, 1781, 1805, 1825, 1842, 1865, 1888, 1897, 1898, 1905, 1913, 1908, 1901, 1910, 1925, 1931, 1927, 1925, 1926, 1925, 1918, 1910, 1902, 1897, 1899, 1910, 1932, 1960, 1967, 1975, 1985, 1987, 1970, 1978, 2002, 2019, 2021, 2031, 2043, 2035, 2011, 1996, 1985, 1952, 1899, 1858, 1840, 1833, 1828, 1824, 1829, 1820, 1798, 1786, 1786, 1778, 1769, 1769, 1771, 1772, 1780, 1788, 1793, 1798, 1798, 1793, 1810, 1904, 2123, 2534, 3145, 3709, 3958, 3907, 3630, 3146, 2655, 2342, 2158, 1994, 1825, 1681, 1596, 1556, 1533, 1527, 1541, 1560, 1566, 1574, 1594, 1605, 1605, 1625, 1664, 1697, 1705, 1710, 1720, 1723, 1721, 1739, 1769, 1786, 1792, 1807, 1839, 1876, 1908, 1943, 1972, 1989, 1984, 1980, 1973, 1958, 1934, 1913, 1898, 1879, 1853, 1836, 1831, 1821, 1803, 1789, 1788, 1789, 1784, 1778, 1780, 1773, 1757, 1750, 1771, 1800, 1823, 1838, 1858, 1874, 1879, 1878, 1887, 1900, 1901, 1902, 1914, 1923, 1907, 1880, 1873, 1875, 1871, 1872, 1885, 1884, 1871, 1870, 1882, 1889, 1882, 1881, 1902, 1937, 1968, 2000, 2018, 2009, 1990, 1985, 1995, 2018, 2037, 2040, 2038, 2031, 2007, 1975, 1942, 1901, 1849, 1811, 1798, 1799, 1800, 1801, 1799, 1796, 1792, 1785, 1788, 1810, 1825, 1830, 1833, 1836, 1825, 1811, 1811, 1826, 1830, 1834, 1844, 1925, 2147, 2571, 3180, 3733, 3968, 3890, 3588, 3106, 2636, 2330, 2143, 1984, 1819, 1677, 1606, 1581, 1557, 1528, 1517, 1529, 1547, 1559, 1573, 1596, 1612, 1617, 1624, 1651, 1671, 1678, 1686, 1712, 1738, 1755, 1775, 1799, 1817, 1829, 1844, 1868, 1894, 1907, 1909, 1916, 1913, 1908, 1908, 1915, 1914, 1909, 1904, 1896, 1882, 1870, 1865, 1857, 1842, 1819, 1795, 1781, 1777, 1774, 1776, 1783, 1788, 1788, 1789, 1810, 1844, 1868, 1879, 1893, 1903, 1899, 1893, 1900, 1906, 1909, 1914, 1910, 1904, 1903, 1895, 1887, 1891, 1893, 1882, 1877, 1870, 1861, 1855, 1863, 1874, 1872, 1864, 1864, 1868, 1863, 1864, 1886, 1916, 1935, 1958, 1991, 2018, 2018, 2018, 2032, 2051, 2050, 2049, 2053, 2043, 2007, 1974, 1953, 1927, 1895, 1873, 1854, 1832, 1817, 1807, 1803, 1804, 1802, 1796, 1794, 1798, 1802, 1805, 1813, 1825, 1826, 1820, 1830, 1832, 1828, 1811, 1800, 1835, 2006, 2358, 2930, 3550, 3908, 3926, 3703, 3280, 2787, 2427, 2208, 2035, 1856, 1693, 1590, 1551, 1538, 1524, 1523, 1534, 1551, 1556, 1553, 1557, 1576, 1596, 1619, 1647, 1663, 1666, 1669, 1681, 1699, 1714, 1730, 1744, 1758, 1773, 1801, 1834, 1858, 1871, 1885, 1900, 1914, 1916, 1916, 1921, 1910, 1897, 1901, 1910, 1903, 1886, 1868, 1849, 1826, 1802, 1794, 1791, 1788, 1779, 1771, 1771, 1779, 1780, 1785, 1803, 1826, 1837, 1852, 1876, 1894, 1893, 1890, 1896, 1903, 1903, 1908, 1914, 1912, 1908, 1906, 1908, 1918, 1920, 1918, 1918, 1911, 1893, 1879, 1873, 1870, 1864, 1855, 1856, 1862, 1869, 1883, 1909, 1935, 1947, 1955, 1971, 1984, 1995, 2007, 2023, 2034, 2040, 2038, 2036, 2034, 2019, 1998, 1980, 1958, 1927, 1905, 1892, 1877, 1865, 1863, 1867, 1875, 1876, 1870, 1863, 1859, 1860, 1861, 1868, 1878, 1881, 1876, 1880, 1889, 1879, 1848, 1848, 1960, 2224, 2694, 3332, 3844, 4017, 3896, 3558, 3055, 2600, 2302, 2108, 1936, 1781, 1662, 1605, 1587, 1570, 1547, 1538, 1547, 1555, 1565, 1581, 1600, 1616, 1628, 1648, 1675, 1698, 1714, 1738, 1761, 1777, 1790, 1812, 1836, 1854, 1865, 1884, 1909, 1936, 1956, 1971, 1989, 1996, 1989, 1981, 1984, 1978, 1969, 1964, 1965, 1961, 1941, 1907, 1874, 1846, 1821, 1810, 1810, 1804, 1793, 1789, 1792, 1799, 1803, 1812, 1830, 1849, 1863, 1880, 1899, 1902, 1899, 1904, 1913, 1922, 1925, 1919, 1906, 1897, 1886, 1885, 1889, 1899, 1898, 1885, 1878, 1880, 1881, 1876, 1880, 1881, 1876, 1865, 1872, 1888, 1895, 1892, 1913, 1939, 1949, 1956, 1974, 1988, 1981, 1976, 1988, 2011, 2026, 2047, 2071, 2085, 2071, 2047, 2030, 2008, 1975, 1946, 1931, 1922, 1913, 1905, 1899, 1895, 1886, 1877, 1883, 1896, 1896, 1887, 1885, 1883, 1877, 1870, 1875, 1890, 1893, 1876, 1865, 1894, 2016, 2299, 2807, 3418, 3818, 3893, 3721, 3339, 2841, 2444, 2208, 2051, 1897, 1748, 1647, 1610, 1590, 1573, 1569, 1585, 1600, 1608, 1613, 1630, 1650, 1662, 1679, 1699, 1716, 1734, 1752, 1767, 1781, 1791, 1806, 1829, 1851, 1875, 1899, 1923, 1945, 1973, 2003, 2024, 2025, 2010, 2002, 2001, 1997, 1988, 1975, 1965, 1959, 1950, 1939, 1923, 1889, 1842, 1809, 1794, 1792, 1800, 1801, 1798, 1794, 1796, 1822, 1849, 1869, 1881, 1891, 1888, 1883, 1885, 1896, 1909, 1910, 1910, 1916, 1926, 1934, 1942, 1952, 1949, 1935, 1920, 1914, 1920, 1927, 1930, 1929, 1926, 1909, 1900, 1901, 1902, 1903, 1908, 1915, 1925, 1934, 1949, 1969, 1982, 1985, 1991, 2002, 2016, 2026, 2038, 2059, 2066, 2044, 2012, 1989, 1962, 1920, 1875, 1844, 1825, 1808, 1801, 1805, 1819, 1821, 1807, 1802, 1808, 1815, 1821, 1830, 1834, 1834, 1829, 1821, 1821, 1820, 1811, 1822, 1938, 2200, 2657, 3254, 3707, 3827, 3674, 3331, 2867, 2484, 2264, 2119, 1971, 1811, 1677, 1610, 1593, 1582, 1564, 1560, 1569, 1582, 1591, 1608, 1629, 1658, 1678, 1691, 1698, 1704, 1700, 1705, 1727, 1757, 1771, 1780, 1796, 1815, 1830, 1854, 1890, 1918, 1933, 1945, 1962, 1972, 1962, 1945, 1939, 1938, 1925, 1914, 1904, 1889, 1863, 1843, 1824, 1803, 1774, 1754, 1744, 1739, 1738, 1732, 1736, 1750, 1766, 1783, 1817, 1847, 1856, 1865, 1881, 1892, 1887, 1892, 1907, 1920, 1917, 1903, 1887, 1877, 1871, 1867, 1882, 1889, 1887, 1880, 1890, 1898, 1892, 1877, 1874, 1872, 1867, 1882, 1912, 1937, 1952, 1972, 1991, 2000, 2005, 2020, 2039, 2065, 2089, 2107, 2109, 2096, 2065, 2023, 1980, 1945, 1902, 1865, 1846, 1842, 1835, 1828, 1824, 1824, 1818, 1789, 1791, 1798, 1802, 1800, 1809, 1802, 1804, 1807, 1812, 1836, 1846, 1828, 1849, 2002, 2324, 2857, 3481, 3881, 3934, 3738, 3345, 2853, 2489, 2286, 2129, 1957, 1795, 1681, 1620, 1600, 1596, 1591, 1584, 1583, 1584, 1588, 1606, 1635, 1662, 1677, 1690, 1710, 1730, 1746, 1760, 1778, 1794, 1806, 1824, 1847, 1874, 1898, 1922, 1950, 1975, 1990, 1995, 2002, 2003, 1996, 1988, 1978, 1968, 1952, 1927, 1903, 1890, 1877, 1857, 1846, 1838, 1821, 1803, 1802, 1804, 1799, 1788, 1781, 1780, 1784, 1806, 1849, 1889, 1908, 1912, 1920, 1923, 1919, 1926, 1943, 1947, 1934, 1927, 1928, 1931, 1926, 1922, 1920, 1914, 1896, 1890, 1898, 1911, 1919, 1934, 1958, 1980, 2000, 2020, 2040, 2052, 2058, 2063, 2068, 2074, 2082, 2089, 2083, 2063, 2036, 2008, 1967, 1930, 1898, 1877, 1867, 1866, 1858, 1848, 1839, 1825, 1810, 1811, 1820, 1830, 1840, 1850, 1859, 1866, 1865, 1862, 1869, 1877, 1864, 1859, 1948, 2191, 2644, 3289, 3846, 4075, 3990, 3651, 3126, 2649, 2341, 2141, 1970, 1808, 1673, 1597, 1566, 1555, 1555, 1562, 1570, 1580, 1591, 1597, 1610, 1635, 1662, 1679, 1693, 1708, 1723, 1727, 1738, 1764, 1786, 1797, 1818, 1842, 1857, 1871, 1891, 1918, 1939, 1943, 1938, 1944, 1944, 1932, 1929, 1937, 1928, 1909, 1903, 1907, 1901, 1882, 1863, 1849, 1822, 1802, 1799, 1802, 1797, 1793, 1799, 1808, 1813, 1822, 1846, 1867, 1882, 1892, 1902, 1910, 1915, 1914, 1917, 1927, 1935, 1934, 1925, 1921, 1920, 1911, 1910, 1920, 1925, 1920, 1918, 1921, 1925, 1931, 1941, 1956, 1979, 1995, 2004, 2005, 2014, 2023, 2044, 2077, 2105, 2108, 2105, 2094, 2070, 2032, 1991, 1946, 1899, 1856, 1827, 1807, 1804, 1805, 1810, 1822, 1834, 1836, 1830, 1826, 1833, 1837, 1838, 1845, 1850, 1844, 1840, 1844, 1834, 1804, 1804, 1916, 2173, 2644, 3295, 3815, 3988, 3864, 3510, 2993, 2548, 2273, 2102, 1952, 1797, 1669, 1597, 1560, 1540, 1531, 1533, 1547, 1562, 1566, 1581, 1604, 1630, 1654, 1672, 1680, 1686, 1697, 1719, 1744, 1769, 1780, 1778, 1780, 1789, 1804, 1821, 1850, 1882, 1910, 1918, 1923, 1931, 1938, 1937, 1943, 1952, 1949, 1932, 1917, 1909, 1902, 1892, 1885, 1881, 1867, 1844, 1829, 1826, 1822, 1804, 1798, 1797, 1794, 1799, 1822, 1844, 1863, 1877, 1889, 1903, 1916, 1923, 1925, 1934, 1951, 1961, 1961, 1955, 1935, 1906, 1888, 1893, 1906, 1905, 1901, 1905, 1911, 1914, 1923, 1939, 1954, 1959, 1967, 1991, 2017, 2035, 2053, 2078, 2092, 2091, 2091, 2096, 2082, 2044, 2002, 1966, 1916, 1864, 1832, 1821, 1802, 1789, 1789, 1794, 1788, 1778, 1768, 1756, 1759, 1768, 1776, 1782, 1793, 1795, 1799, 1817, 1836, 1834, 1820, 1829, 1940, 2223, 2728, 3372, 3850, 3976, 3817, 3452, 2954, 2537, 2285, 2114, 1942, 1769, 1647, 1597, 1577, 1554, 1542, 1551, 1571, 1584, 1598, 1621, 1636, 1641, 1651, 1669, 1684, 1695, 1705, 1722, 1739, 1756, 1767, 1786, 1815, 1843, 1853, 1870, 1895, 1917, 1939, 1970, 1995, 1998, 1988, 1981, 1978, 1974, 1974, 1983, 1977, 1954, 1921, 1895, 1873, 1858, 1839, 1828, 1821, 1802, 1788, 1795, 1809, 1822, 1838, 1856, 1874, 1881, 1887, 1901, 1921, 1932, 1934, 1941, 1949, 1950, 1943, 1950, 1957, 1946, 1939, 1944, 1940, 1930, 1915, 1898, 1888, 1884, 1883, 1894, 1911, 1922, 1926, 1936, 1952, 1965, 1979, 1994, 2015, 2042, 2065, 2077, 2086, 2097, 2092, 2073, 2054, 2036, 1997, 1943, 1902, 1878, 1861, 1850, 1853, 1856, 1847, 1836, 1836, 1842, 1841, 1837, 1836, 1835, 1829, 1824, 1835, 1846, 1847, 1841, 1837, 1827, 1834, 1946, 2234, 2742, 3397, 3908, 4090, 3974, 3602, 3061, 2597, 2307, 2110, 1931, 1774, 1662, 1607, 1576, 1565, 1560, 1552, 1545, 1553, 1567, 1584, 1609, 1637, 1658, 1668, 1669, 1675, 1693, 1717, 1738, 1760, 1788, 1805, 1819, 1843, 1879, 1910, 1929, 1951, 1970, 1979, 1983, 1993, 2007, 2011, 2005, 2000, 1996, 1990, 1982, 1971, 1949, 1917, 1885, 1866, 1856, 1847, 1834, 1828, 1822, 1811, 1800, 1805, 1821, 1834, 1848, 1872, 1896, 1911, 1916, 1924, 1923, 1914, 1903, 1905, 1911, 1920, 1919, 1915, 1910, 1906, 1896, 1893, 1887, 1870, 1851, 1841, 1841, 1844, 1845, 1850, 1858, 1855, 1857, 1888, 1917, 1940, 1967, 1992, 2002, 2003, 2010, 2024, 2042, 2054, 2062, 2064, 2054, 2029, 1997, 1967, 1939, 1912, 1886, 1864, 1854, 1849, 1838, 1833, 1828, 1834, 1836, 1839, 1843, 1850, 1844, 1841, 1842, 1845, 1840, 1844, 1852, 1851, 1826, 1834, 1935, 2189, 2661, 3311, 3855, 4081, 3997, 3662, 3149, 2335, 2116, 1935, 1774, 1650, 1581, 1545, 1517, 1489, 1479, 1492, 1515, 1539, 1563, 1589, 1608, 1618, 1629, 1652, 1677, 1694, 1717, 1747, 1772, 1785, 1803, 1827, 1856, 1876, 1899, 1931, 1957, 1966, 1977, 1995, 2008, 2004, 1993, 1988, 1989, 1976, 1957, 1949, 1936, 1910, 1889, 1878, 1865, 1845, 1821, 1801, 1786, 1775, 1769, 1774, 1784, 1800, 1818, 1840, 1865, 1882, 1890, 1905, 1918, 1910, 1903, 1900, 1898, 1898, 1902, 1907, 1908, 1901, 1887, 1876, 1879, 1883, 1876, 1867, 1869, 1868, 1861, 1870, 1888, 1892, 1888, 1895, 1902, 1906, 1923, 1945, 1962, 1974, 1987, 1988, 1996, 2012, 2029, 2047, 2072, 2087, 2086, 2074, 2055, 2031, 1999, 1968, 1943, 1926, 1905, 1889, 1877, 1869, 1861, 1860, 1858, 1860, 1860, 1863, 1870, 1885, 1886, 1884, 1888, 1884, 1870, 1863, 1862, 1842, 1813, 1829, 1963, 2255, 2753, 3385, 3858, 4006, 3872, 3508, 2996, 2561, 2275, 2075, 1906, 1756, 1647, 1595, 1581, 1571, 1557, 1555, 1558, 1563, 1566, 1585, 1608, 1633, 1648, 1663, 1679, 1684, 1689, 1702, 1726, 1746, 1760, 1773, 1795, 1823, 1853, 1887, 1924, 1956, 1967, 1968, 1975, 1983, 1978, 1972, 1970, 1963, 1951, 1938, 1919, 1893, 1868, 1841, 1818, 1804, 1788, 1767, 1756, 1752, 1745, 1740, 1740, 1743, 1736, 1739, 1754, 1774, 1791, 1811, 1831, 1845, 1850, 1850, 1858, 1867, 1872, 1875, 1886, 1901, 1907, 1908, 1912, 1914, 1910, 1903, 1903, 1903, 1893, 1880, 1874, 1873, 1876, 1884, 1889, 1891, 1893, 1892, 1904, 1932, 1963, 1990, 2010, 2022, 2032, 2041, 2054, 2075, 2093, 2104, 2111, 2105, 2083, 2055, 2027, 1990, 1949, 1917, 1905, 1896, 1880, 1867, 1862, 1853, 1841, 1832, 1835, 1839, 1837, 1829, 1831, 1841, 1842, 1832, 1822, 1824, 1822, 1807, 1796, 1865, 2083, 2484, 3077, 3631, 3880, 3814, 3532, 3079, 2643, 2378, 2214, 2058, 1888, 1745, 1660, 1627, 1615, 1609, 1612, 1615, 1620, 1623, 1636, 1646, 1663, 1677, 1694, 1720, 1743, 1754, 1774, 1794, 1803, 1806, 1819, 1843, 1872, 1896, 1920, 1946, 1976, 1999, 2015, 2035, 2055, 2051, 2033, 2028, 2027, 2011, 1990, 1977, 1954, 1909, 1868, 1850, 1839, 1816, 1801, 1794, 1781, 1762, 1754, 1761, 1770, 1774, 1787, 1817, 1838, 1849, 1852, 1851, 1851, 1858, 1865, 1884, 1910, 1916, 1907, 1902, 1900, 1884, 1868, 1865, 1861, 1849, 1842, 1849, 1859, 1866, 1866, 1872, 1876, 1878, 1877, 1881, 1887, 1902, 1920, 1943, 1969, 1991, 2006, 2020, 2039, 2059, 2076, 2092, 2105, 2111, 2114, 2105, 2079, 2043, 1999, 1952, 1912, 1876, 1847, 1834, 1829, 1825, 1809, 1789, 1777, 1773, 1770, 1785, 1810, 1829, 1833, 1831, 1837, 1847, 1843, 1840, 1841, 1829, 1814, 1881, 2114, 2545, 3157, 3709, 3945, 3864, 3557, 3081, 2634, 2362, 2190, 2022, 1849, 1708, 1620, 1584, 1575, 1563, 1544, 1547, 1565, 1583, 1599, 1621, 1637, 1648, 1659, 1681, 1703, 1716, 1728, 1747, 1768, 1783, 1797, 1818, 1841, 1866, 1889, 1907, 1931, 1958, 1970, 1975, 1991, 1993, 1977, 1971, 1977, 1983, 1979, 1973, 1960, 1943, 1921, 1892, 1863, 1837, 1813, 1795, 1796, 1801, 1798, 1794, 1798, 1803, 1811, 1820, 1834, 1849, 1859, 1876, 1899, 1916, 1921, 1927, 1931, 1935, 1933, 1929, 1926, 1927, 1922, 1917, 1918, 1919, 1908, 1901, 1901, 1911, 1909, 1905, 1906, 1906, 1890, 1885, 1900, 1924, 1948, 1977, 2006, 2013, 2004, 2001, 2014, 2027, 2038, 2057, 2072, 2067, 2042, 2010, 1972, 1932, 1890, 1859, 1845, 1846, 1845, 1843, 1843, 1843, 1835, 1819, 1815, 1822, 1828, 1828, 1834, 1842, 1834, 1826, 1831, 1845, 1844, 1830, 1843, 1944, 2188, 2647, 3294, 3845, 4057, 3958, 3620, 3111, 2638, 2326, 2133, 1971, 1813, 1683, 1622, 1602, 1585, 1569, 1566, 1572, 1584, 1594, 1608, 1614, 1623, 1632, 1650, 1666, 1687, 1702, 1711, 1723, 1743, 1766, 1787, 1813, 1833, 1845, 1859, 1887, 1918, 1943, 1961, 1972, 1984, 1987, 1977, 1971, 1971, 1963, 1945, 1938, 1932, 1910, 1885, 1872, 1857, 1837, 1816, 1795, 1781, 1773, 1772, 1777, 1794, 1813, 1829, 1843, 1860, 1868, 1869, 1877, 1893, 1902, 1906, 1913, 1922, 1912, 1907, 1906, 1908, 1904, 1904, 1906, 1909, 1897, 1883, 1882, 1886, 1880, 1872, 1869, 1868, 1865, 1862, 1872, 1898, 1920, 1932, 1951, 1971, 1972, 1964, 1974, 1996, 2016, 2031, 2057, 2075, 2067, 2040, 2014, 1983, 1944, 1907, 1882, 1859, 1841, 1833, 1839, 1849, 1852, 1844, 1837, 1835, 1833, 1836, 1849, 1859, 1852, 1841, 1839, 1836, 1829, 1819, 1811, 1826, 1923, 2145, 2573, 3192, 3738, 3976, 3932, 3647, 3153, 2663, 2335, 2134, 1974, 1820, 1690, 1613, 1571, 1544, 1536, 1547, 1562, 1565, 1558, 1563, 1583, 1601, 1622, 1651, 1673, 1681, 1697, 1728, 1759, 1774, 1789, 1814, 1837, 1854, 1885, 1929, 1967, 2000, 2031, 2057, 2066, 2057, 2039, 2030, 2024, 2013, 2007, 2000, 1985, 1966, 1946, 1926, 1902, 1879, 1859, 1841, 1829, 1820, 1812, 1811, 1818, 1823, 1832, 1854, 1875, 1892, 1905, 1927, 1935, 1930, 1928, 1935, 1937, 1935, 1937, 1940, 1934, 1914, 1902, 1901, 1900, 1895, 1900, 1905, 1909, 1903, 1899, 1906, 1912, 1905, 1894, 1893, 1893, 1899, 1909, 1930, 1955, 1972, 1980, 1995, 2008, 2008, 2018, 2040, 2060, 2076, 2095, 2108, 2111, 2089, 2054, 2019, 1982, 1947, 1924, 1911, 1908, 1898, 1885, 1889, 1901, 1892, 1876, 1869, 1869, 1867, 1873, 1882, 1887, 1885, 1882, 1880, 1884, 1887, 1875, 1860, 1878, 1987, 2244, 2716, 3334, 3820, 3985, 3873, 3529, 3024, 2583, 2312, 2132, 1964, 1808, 1690, 1627, 1600, 1593, 1589, 1596, 1609, 1617, 1625, 1648, 1660, 1664, 1683, 1705, 1719, 1730, 1754, 1782, 1801, 1820, 1841, 1862, 1875, 1892, 1918, 1949, 1974, 1999, 2031, 2061, 2074, 2072, 2063, 2045, 2021, 2008, 2009, 2007, 1993, 1963, 1937, 1918, 1895, 1866, 1846, 1831, 1814, 1799, 1795, 1798, 1798, 1782, 1778, 1789, 1808, 1820, 1842, 1862, 1876, 1877, 1877, 1875, 1869, 1867, 1875, 1891, 1892, 1889, 1881, 1877, 1879, 1886, 1889, 1896, 1895, 1883, 1879, 1884, 1886, 1879, 1876, 1874, 1872, 1863, 1854, 1853, 1867, 1892, 1917, 1947, 1976, 1985, 1982, 1994, 2026, 2054, 2068, 2083, 2092, 2086, 2072, 2065, 2046, 2010, 1961, 1921, 1896, 1874, 1855, 1847, 1841, 1839, 1853, 1868, 1874, 1869, 1860, 1846, 1839, 1838, 1840, 1834, 1831, 1827, 1821, 1821, 1827, 1820, 1864, 2042, 2395, 2952, 3536, 3859, 3864, 3627, 3195, 2730, 2417, 2222, 2057, 1886, 1737, 1648, 1610, 1604, 1598, 1584, 1571, 1582, 1600, 1613, 1628, 1659, 1690, 1711, 1724, 1740, 1749, 1752, 1758, 1781, 1805, 1818, 1824, 1844, 1872, 1902, 1922, 1945, 1972, 1984, 1975, 1982, 1996, 1997, 1986, 1980, 1976, 1959, 1931, 1919, 1914, 1902, 1876, 1844, 1806, 1773, 1751, 1744, 1745, 1740, 1730, 1726, 1735, 1747, 1766, 1792, 1823, 1841, 1847, 1858, 1873, 1878, 1882, 1899, 1914, 1908, 1890, 1881, 1885, 1883, 1880, 1890, 1896, 1888, 1871, 1868, 1870, 1868, 1865, 1872, 1879, 1876, 1864, 1867, 1883, 1896, 1905, 1930, 1962, 1987, 2005, 2021, 2038, 2057, 2066, 2070, 2084, 2107, 2108, 2092, 2072, 2035, 1980, 1925, 1882, 1855, 1844, 1830, 1816, 1811, 1807, 1802, 1800, 1801, 1792, 1779, 1777, 1781, 1791, 1800, 1821, 1835, 1835, 1826, 1824, 1816, 1821, 1930, 2207, 2692, 3320, 3810, 3960, 3825, 3480, 2984, 2565, 2323, 2153, 1976, 1810, 1686, 1616, 1591, 1579, 1565, 1558, 1571, 1589, 1609, 1630, 1646, 1656, 1672, 1689, 1703, 1722, 1748, 1764, 1777, 1791, 1807, 1817, 1823, 1834, 1858, 1888, 1914, 1947, 1980, 1995, 1990, 1985, 1984, 1977, 1967, 1960, 1953, 1940, 1924, 1908, 1891, 1876, 1860, 1848, 1832, 1822, 1812, 1806, 1804, 1808, 1807, 1803, 1801, 1808, 1818, 1835, 1865, 1889, 1895, 1901, 1913, 1912, 1909, 1917, 1923, 1921, 1917, 1917, 1920, 1920, 1914, 1912, 1916, 1913, 1909, 1910, 1913, 1909, 1903, 1896, 1890, 1889, 1886, 1880, 1881, 1890, 1888, 1894, 1915, 1940, 1954, 1974, 1998, 2004, 1993, 1993, 2006, 2022, 2032, 2041, 2044, 2035, 2010, 1986, 1963, 1932, 1899, 1877, 1858, 1851, 1855, 1853, 1852, 1852, 1849, 1841, 1839, 1842, 1841, 1841, 1844, 1842, 1830, 1824, 1828, 1839, 1844, 1835, 1825, 1859, 2008, 2333, 2883, 3520, 3942, 4023, 3834, 3420, 2886, 2462, 2206, 2023, 1847, 1701, 1610, 1576, 1557, 1539, 1526, 1526, 1523, 1532, 1551, 1574, 1593, 1610, 1622, 1643, 1662, 1675, 1691, 1708, 1714, 1712, 1732, 1766, 1795, 1821, 1850, 1867, 1879, 1905, 1943, 1979, 1990, 1986, 1983, 1976, 1963, 1960, 1962, 1957, 1937, 1916, 1901, 1890, 1874, 1852, 1835, 1818, 1798, 1778, 1772, 1774, 1779, 1780, 1790, 1809, 1829, 1841, 1849, 1862, 1872, 1872, 1876, 1891, 1901, 1901, 1904, 1911, 1910, 1903, 1902, 1903, 1896, 1890, 1889, 1888, 1887, 1885, 1879, 1873, 1868, 1863, 1859, 1861, 1869, 1873, 1873, 1869, 1866, 1866, 1881, 1913, 1950, 1976, 1991, 1996, 1984, 1971, 1984, 2018, 2054, 2077, 2095, 2099, 2079, 2047, 2027, 2014, 1986, 1955, 1930, 1910, 1894, 1886, 1881, 1879, 1879, 1872, 1868, 1874, 1882, 1886, 1893, 1897, 1898, 1894, 1894, 1895, 1892, 1880, 1861, 1842, 1891, 2063, 2414, 2982, 3599, 3956, 3998, 3793, 3364, 2847, 2457, 2227, 2058, 1889, 1736, 1643, 1597, 1568, 1545, 1542, 1554, 1561, 1573, 1593, 1622, 1647, 1670, 1690, 1715, 1731, 1741, 1751, 1760, 1770, 1780, 1798, 1825, 1855, 1883, 1912, 1937, 1958, 1982, 2005, 2017, 2024, 2028, 2018, 1993, 1973, 1968, 1963, 1959, 1949, 1930, 1901, 1871, 1844, 1823, 1804, 1785, 1769, 1759, 1757, 1759, 1761, 1762, 1774, 1799, 1824, 1849, 1876, 1895, 1897, 1890, 1897, 1899, 1896, 1890, 1893, 1890, 1891, 1890, 1899, 1911, 1914, 1901, 1897, 1898, 1902, 1899, 1904, 1911, 1914, 1907, 1904, 1903, 1901, 1894, 1897, 1900, 1900, 1897, 1898, 1903, 1914, 1935, 1962, 1988, 2010, 2027, 2042, 2051, 2042, 2028, 2036, 2054, 2071, 2090, 2110, 2108, 2088, 2056, 2026, 2004, 1984, 1959, 1951, 1947, 1931, 1906, 1896, 1897, 1900, 1901, 1905, 1904, 1897, 1885, 1880, 1884, 1890, 1888, 1882, 1875, 1868, 1848, 1821, 1847, 2004, 2326, 2851, 3465, 3861, 3937, 3765, 3389, 2901, 2512, 2264, 2080, 1903, 1753, 1666, 1641, 1630, 1610, 1594, 1590, 1599, 1612, 1626, 1643, 1664, 1671, 1676, 1697, 1725, 1737, 1743, 1757, 1769, 1772, 1783, 1808, 1837, 1869, 1905, 1938, 1962, 1975, 1986, 2001, 2013, 2016, 2014, 2007, 1993, 1978, 1964, 1954, 1948, 1929, 1898, 1867, 1837, 1801, 1769, 1752, 1743, 1736, 1729, 1736, 1750, 1748, 1743, 1756, 1780, 1800, 1819, 1840, 1852, 1854, 1856, 1869, 1878, 1882, 1879, 1874, 1872, 1868, 1860, 1867, 1877, 1882, 1884, 1880, 1874, 1864, 1857, 1855, 1862, 1857, 1848, 1847, 1860, 1860, 1854, 1853, 1863, 1868, 1875, 1884, 1892, 1891, 1892, 1917, 1953, 1988, 2008, 2011, 2001, 1995, 2006, 2031, 2067, 2096, 2103, 2097, 2079, 2045, 2006, 1981, 1952, 1923, 1897, 1885, 1879, 1870, 1856, 1865, 1890, 1899, 1890, 1885, 1881, 1864, 1849, 1859, 1879, 1882, 1873, 1868, 1873, 1881, 1870, 1859, 1935, 2154, 2567, 3172, 3705, 3906, 3801, 3484, 3011, 2585, 2334, 2182, 2033, 1865, 1723, 1647, 1619, 1606, 1590, 1580, 1590, 1615, 1631, 1648, 1679, 1698, 1709, 1721, 1734, 1743, 1747, 1757, 1772, 1796, 1814, 1828, 1840, 1855, 1870, 1895, 1935, 1976, 2006, 2021, 2026, 2023, 2009, 1996, 1999, 2008, 2002, 1990, 1984, 1967, 1939, 1911, 1890, 1868, 1842, 1810, 1790, 1782, 1779, 1774, 1770, 1773, 1777, 1784, 1804, 1837, 1858, 1864, 1869, 1878, 1883, 1893, 1910, 1920, 1918, 1908, 1901, 1892, 1886, 1877, 1875, 1876, 1876, 1870, 1870, 1875, 1876, 1863, 1855, 1858, 1856, 1847, 1854, 1860, 1844, 1826, 1828, 1829, 1833, 1854, 1883, 1910, 1940, 1964, 1977, 1988, 2004, 2029, 2059, 2089, 2111, 2111, 2094, 2068, 2031, 1988, 1946, 1908, 1871, 1842, 1828, 1824, 1825, 1826, 1832, 1833, 1827, 1815, 1812, 1813, 1812, 1811, 1818, 1830, 1834, 1828, 1826, 1835, 1835, 1829, 1891, 2107, 2505, 3088, 3656, 3934, 3886, 3599, 3133, 2671, 2379, 2196, 2028, 1849, 1697, 1606, 1570, 1559, 1548, 1530, 1522, 1536, 1555, 1575, 1598, 1625, 1645, 1657, 1671, 1694, 1712, 1724, 1740, 1766, 1792, 1813, 1833, 1857, 1884, 1913, 1949, 1989, 2014, 2013, 2005, 1998, 1988, 1984, 1994, 2005, 2009, 2002, 1990, 1978, 1959, 1930, 1906, 1894, 1875, 1843, 1815, 1801, 1789, 1778, 1781, 1792, 1803, 1808, 1817, 1837, 1864, 1880, 1893, 1909, 1921, 1917, 1912, 1909, 1912, 1899, 1888, 1887, 1888, 1877, 1872, 1877, 1881, 1880, 1877, 1878, 1880, 1874, 1863, 1855, 1855, 1856, 1862, 1876, 1903, 1930, 1943, 1962, 1992, 2008, 2009, 2025, 2052, 2061, 2067, 2084, 2098, 2091, 2069, 2051, 2034, 2002, 1958, 1927, 1901, 1875, 1851, 1843, 1850, 1851, 1844, 1839, 1839, 1838, 1837, 1844, 1857, 1866, 1868, 1865, 1860, 1858, 1853, 1840, 1829, 1833, 1914, 2140, 2578, 3208, 3786, 4055, 4010, 3704, 3189, 2681, 2337, 2114, 1927, 1763, 1637, 1566, 1532, 1527, 1532, 1530, 1527, 1535, 1547, 1550, 1551, 1564, 1591, 1612, 1629, 1655, 1689, 1718, 1728, 1736, 1757, 1773, 1782, 1808, 1842, 1869, 1896, 1927, 1961, 1986, 1994, 2000, 1997, 1983, 1971, 1968, 1955, 1938, 1922, 1909, 1901, 1886, 1864, 1842, 1828, 1813, 1793, 1775, 1769, 1765, 1756, 1754, 1768, 1790, 1807, 1824, 1850, 1877, 1886, 1883, 1884, 1889, 1886, 1881, 1881, 1884, 1886, 1875, 1883, 1894, 1895, 1896, 1926, 1939, 1934, 1918, 1912, 1907, 1897, 1898, 1915, 1924, 1917, 1911, 1912, 1923, 1930, 1944, 1971, 1995, 1996, 1992, 1997, 2014, 2029, 2051, 2077, 2091, 2086, 2074, 2057, 2029, 1986, 1945, 1917, 1896, 1878, 1863, 1851, 1846, 1841, 1841, 1850, 1862, 1862, 1856, 1856, 1861, 1859, 1855, 1852, 1854, 1847, 1835, 1831, 1832, 1829, 1898, 2110, 2516, 3115, 3692, 3987, 3977, 3717, 3242, 2745, 2405, 2180, 1988, 1818, 1684, 1605, 1580, 1579, 1576, 1574, 1570, 1563, 1566, 1572, 1583, 1608, 1649, 1674, 1689, 1710, 1731, 1736, 1742, 1770, 1799, 1819, 1830, 1852, 1876, 1903, 1929, 1963, 1997, 2017, 2012, 2010, 2020, 2017, 1998, 1991, 1990, 1970, 1943, 1928, 1918, 1893, 1857, 1827, 1792, 1758, 1733, 1729, 1730, 1736, 1745, 1754, 1758, 1765, 1772, 1780, 1800, 1830, 1852, 1869, 1890, 1908, 1912, 1913, 1921, 1919, 1895, 1881, 1884, 1891, 1886, 1888, 1889, 1885, 1876, 1881, 1887, 1890, 1883, 1880, 1882, 1888, 1891, 1886, 1881, 1883, 1886, 1891, 1898, 1902, 1904, 1916, 1941, 1970, 1992, 2007, 2014, 2016, 2026, 2041, 2058, 2068, 2068, 2068, 2071, 2058, 2028, 1992, 1948, 1893, 1849, 1827, 1821, 1828, 1837, 1840, 1842, 1835, 1821, 1813, 1821, 1827, 1828, 1825, 1821, 1823, 1833, 1839, 1845, 1852, 1841, 1827, 1899, 2105, 2486, 3061, 3622, 3881, 3828, 3558, 3111, 2650, 2339, 2155, 2002, 1842, 1703, 1630, 1610, 1604, 1594, 1580, 1570, 1571, 1574, 1588, 1617, 1653, 1676, 1686, 1691, 1702, 1716, 1727, 1746, 1770, 1786, 1795, 1812, 1838, 1862, 1885, 1913, 1941, 1968, 1984, 1993, 1997, 2000, 1988, 1979, 1974, 1963, 1946, 1949, 1950, 1933, 1909, 1886, 1857, 1828, 1811, 1804, 1799, 1791, 1779, 1767, 1768, 1780, 1798, 1826, 1855, 1871, 1881, 1881, 1878, 1875, 1876, 1885, 1897, 1908, 1918, 1923, 1920, 1909, 1894, 1892, 1901, 1905, 1901, 1902, 1899, 1888, 1878, 1879, 1883, 1891, 1896, 1902, 1901, 1889, 1874, 1872, 1874, 1871, 1872, 1886, 1914, 1944, 1982, 2017, 2033, 2020, 2001, 2000, 2021, 2054, 2083, 2101, 2112, 2114, 2096, 2071, 2048, 2006, 1942, 1896, 1874, 1859, 1851, 1848, 1838, 1828, 1824, 1829, 1833, 1827, 1816, 1813, 1811, 1815, 1825, 1835, 1842, 1845, 1846, 1854, 1856, 1898, 2074, 2441, 3008, 3599, 3911, 3889, 3641, 3215, 2740, 2428, 2266, 2118, 1936, 1773, 1675, 1635, 1617, 1602, 1599, 1607, 1615, 1619, 1630, 1635, 1630, 1626, 1643, 1670, 1698, 1723, 1749, 1761, 1768, 1780, 1808, 1843, 1872, 1900, 1933, 1955, 1963, 1975, 1994, 2014, 2031, 2045, 2043, 2031, 2013, 2001, 1991, 1984, 1972, 1955, 1941, 1925, 1903, 1877, 1858, 1839, 1816, 1799, 1799, 1800, 1800, 1806, 1828, 1853, 1875, 1889, 1904, 1918, 1930, 1937, 1947, 1960, 1965, 1960, 1962, 1970, 1961, 1951, 1952, 1954, 1952, 1957, 1960, 1951, 1931, 1911, 1903, 1913, 1921, 1923, 1928, 1936, 1937, 1938, 1961, 2000, 2029, 2048, 2070, 2089, 2100, 2106, 2118, 2130, 2142, 2147, 2142, 2126, 2089, 2038, 1992, 1952, 1929, 1919, 1914, 1909, 1904, 1897, 1895, 1892, 1882, 1870, 1871, 1880, 1884, 1883, 1888, 1894, 1896, 1891, 1889, 1891, 1876, 1868, 1972, 2245, 2715, 3355, 3906, 4128, 4043, 3710, 3188, 2701, 2382, 2156, 1957, 1784, 1659, 1585, 1558, 1553, 1553, 1542, 1537, 1546, 1556, 1559, 1568, 1591, 1609, 1622, 1641, 1667, 1689, 1707, 1723, 1740, 1756, 1772, 1788, 1816, 1842, 1863, 1894, 1931, 1962, 1982, 1992, 2002, 2000, 1992, 1983, 1984, 1975, 1964, 1944, 1933, 1923, 1904, 1876, 1865, 1849, 1819, 1795, 1795, 1798, 1797, 1807, 1824, 1838, 1847, 1865, 1889, 1907, 1912, 1918, 1936, 1957, 1964, 1964, 1961, 1963, 1957, 1955, 1973, 1990, 1985, 1975, 1971, 1970, 1965, 1969, 1982, 1992, 1987, 1974, 1973, 1982, 1998, 2020, 2053, 2080, 2096, 2108, 2120, 2126, 2133, 2149, 2169, 2186, 2209, 2227, 2220, 2192, 2161, 2122, 2073, 2028, 1998, 1980, 1973, 1972, 1974, 1979, 1982, 1986, 1988, 1990, 1992, 1995, 1994, 1983, 1980, 1989, 1994, 1989, 1991, 1993, 1979, 1958, 2013, 2202, 2569, 3146, 3776, 4160, 4214, 3994, 3542, 3008, 2591, 2318, 2118, 1941, 1792, 1695, 1657, 1647, 1638, 1629, 1638, 1652, 1663, 1660, 1665, 1677, 1693, 1705, 1728, 1754, 1768, 1781, 1802, 1827, 1847, 1863, 1878, 1905, 1934, 1959, 1983, 2009, 2026, 2044, 2065, 2081, 2080, 2066, 2049, 2040, 2033, 2026, 2016, 2008, 1998, 1982, 1968, 1956, 1936, 1903, 1877, 1861, 1849, 1846, 1859, 1872, 1880, 1883, 1892, 1900, 1917, 1934, 1948, 1951, 1948, 1936, 1927, 1928, 1934, 1936, 1944, 1961, 1975, 1969, 1966, 1966, 1953, 1933, 1923, 1922, 1918, 1911, 1912, 1928, 1937, 1943, 1950, 1959, 1967, 1980, 1990, 2004, 2018, 2028, 2039, 2055, 2072, 2079, 2081, 2079, 2068, 2040, 1998, 1958, 1916, 1871, 1837, 1824, 1821, 1819, 1820, 1828, 1831, 1820, 1803, 1796, 1798, 1800, 1797, 1791, 1786, 1784, 1784, 1796, 1820, 1825, 1816, 1871, 2071, 2458, 3049, 3635, 3935, 3908, 3632, 3164, 2679, 2355, 2165, 2013, 1853, 1704, 1612, 1575, 1567, 1569, 1572, 1575, 1582, 1583, 1582, 1592, 1612, 1639, 1660, 1686, 1712, 1730, 1739, 1757, 1785, 1812, 1833, 1856, 1877, 1886, 1892, 1913, 1941, 1965, 1986, 2011, 2026, 2033, 2025, 2018, 2011, 1997, 1965, 1948, 1937, 1927, 1903, 1876, 1839, 1808, 1777, 1759, 1761, 1774, 1770, 1753, 1748, 1753, 1758, 1774, 1803, 1828, 1844, 1862, 1885, 1905, 1924, 1930, 1931, 1926, 1911, 1896, 1900, 1903, 1893, 1890, 1894, 1885, 1870, 1871, 1869, 1864, 1859, 1851, 1845, 1850, 1859, 1873, 1899, 1929, 1950, 1959, 1967, 1982, 2001, 2002, 2002, 2006, 2006, 1995, 1993, 1986, 1962, 1918, 1874, 1835, 1809, 1793, 1794, 1797, 1786, 1770, 1767, 1756, 1736, 1739, 1758, 1777, 1786, 1785, 1784, 1781, 1780, 1791, 1812, 1823, 1815, 1828, 1978, 2321, 2869, 3482, 3861, 3871, 3629, 3208, 2725, 2386, 2205, 2056, 1883, 1709, 1585, 1537, 1519, 1504, 1500, 1511, 1523, 1537, 1550, 1549, 1556, 1575, 1596, 1616, 1638, 1654, 1658, 1665, 1693, 1731, 1757, 1773, 1783, 1787, 1795, 1818, 1849, 1882, 1905, 1917, 1920, 1923, 1922, 1911, 1907, 1902, 1897, 1883, 1876, 1867, 1845, 1819, 1803, 1783, 1752, 1732, 1734, 1741, 1741, 1739, 1742, 1747, 1756, 1765, 1784, 1804, 1823, 1830, 1851, 1875, 1893, 1891, 1894, 1903, 1911, 1909, 1911, 1915, 1912, 1900, 1890, 1893, 1901, 1899, 1890, 1883, 1877, 1860, 1845, 1848, 1863, 1866, 1873, 1889, 1910, 1928, 1958, 1987, 1999, 1977, 1956, 1956, 1971, 1988, 2017, 2050, 2060, 2031, 1993, 1967, 1935, 1878, 1830, 1813, 1823, 1803, 1787, 1793, 1793, 1767, 1773, 1792, 1804, 1805, 1803, 1802, 1805, 1805, 1804, 1811, 1820, 1811, 1795, 1784, 1798, 1909, 2185, 2673, 3322, 3838, 4006, 3874, 3512, 2983, 2522, 2253, 2081, 1912, 1755, 1631, 1562, 1526, 1512, 1509, 1518, 1521, 1541, 1567, 1589, 1600, 1614, 1629, 1652, 1667, 1676, 1688, 1706, 1713, 1723, 1738, 1757, 1772, 1790, 1813, 1836, 1858, 1881, 1913, 1938, 1954, 1954, 1948, 1933, 1923, 1917, 1921, 1922, 1910, 1882, 1856, 1838, 1825, 1806, 1785, 1769, 1749, 1732, 1728, 1742, 1753, 1760, 1769, 1786, 1796, 1806, 1825, 1848, 1864, 1874, 1888, 1906, 1907, 1890, 1879, 1883, 1885, 1886, 1892, 1892, 1878, 1862, 1858, 1862, 1863, 1862, 1861, 1858, 1860, 1871, 1878, 1884, 1891, 1891, 1884, 1882, 1878, 1874, 1869, 1866, 1870, 1873, 1884, 1907, 1936, 1955, 1971, 1980, 1970, 1955, 1964, 1991, 2023, 2057, 2080, 2083, 2070, 2035, 1997, 1977, 1957, 1921, 1894, 1885, 1880, 1872, 1873, 1885, 1889, 1883, 1882, 1880, 1864, 1852, 1850, 1856, 1857, 1865, 1878, 1889, 1892, 1890, 1885, 1878, 1919, 2067, 2393, 2942, 3573, 3978, 4056, 3866, 3441, 2897, 2469, 2210, 2032, 1871, 1729, 1638, 1597, 1569, 1545, 1539, 1546, 1553, 1568, 1590, 1605, 1609, 1621, 1638, 1651, 1663, 1679, 1697, 1721, 1744, 1767, 1787, 1809, 1825, 1847, 1876, 1911, 1939, 1962, 1987, 2002, 2005, 2000, 1993, 1983, 1971, 1961, 1954, 1950, 1939, 1925, 1911, 1892, 1860, 1828, 1804, 1788, 1775, 1766, 1766, 1778, 1783, 1787, 1802, 1823, 1836, 1859, 1885, 1901, 1907, 1902, 1888, 1880, 1881, 1884, 1892, 1905, 1914, 1900, 1886, 1878, 1866, 1853, 1864, 1877, 1879, 1871, 1871, 1874, 1869, 1862, 1871, 1885, 1878, 1868, 1880, 1899, 1904, 1901, 1905, 1908, 1900, 1893, 1905, 1919, 1925, 1923, 1920, 1914, 1905, 1894, 1900, 1925, 1941, 1945, 1947, 1952, 1952, 1965, 1995, 2019, 2026, 2022, 2012, 2012, 2029, 2048, 2081, 2120, 2139, 2122, 2099, 2071, 2032, 1986, 1954, 1940, 1927, 1915, 1912, 1911, 1889, 1860, 1851, 1860, 1867, 1873, 1875, 1870, 1861, 1859, 1867, 1887, 1901, 1899, 1887, 1880, 1875, 1866, 1888, 2025, 2317, 2801, 3401, 3838, 3939, 3772, 3403, 2914, 2519, 2281, 2110, 1937, 1773, 1656, 1603, 1594, 1584, 1562, 1541, 1546, 1562, 1582, 1606, 1627, 1643, 1653, 1661, 1677, 1701, 1719, 1732, 1744, 1757, 1776, 1806, 1842, 1870, 1888, 1900, 1919, 1945, 1975, 2003, 2021, 2018, 1999, 1982, 1973, 1962, 1943, 1924, 1914, 1906, 1891, 1864, 1839, 1811, 1779, 1760, 1767, 1777, 1776, 1770, 1768, 1771, 1776, 1789, 1810, 1835, 1860, 1874, 1883, 1895, 1906, 1901, 1892, 1893, 1901, 1902, 1913, 1931, 1939, 1944, 1946, 1933, 1913, 1896, 1882, 1882, 1890, 1893, 1906, 1910, 1897, 1874, 1865, 1867, 1864, 1857, 1861, 1872, 1880, 1882, 1891, 1902, 1897, 1886, 1890, 1900, 1906, 1918, 1933, 1950, 1964, 1973, 1989, 2012, 2025, 2022, 2032, 2049, 2057, 2066, 2080, 2095, 2097, 2080, 2058, 2044, 2019, 1973, 1933, 1909, 1887, 1872, 1874, 1886, 1886, 1876, 1867, 1868, 1866, 1869, 1877, 1882, 1881, 1879, 1873, 1869, 1872, 1876, 1887, 1900, 1913, 1993, 2216, 2627, 3204, 3698, 3869, 3757, 3460, 3016, 2615, 2386, 2240, 2063, 1869, 1723, 1653, 1620, 1598, 1588, 1585, 1587, 1592, 1606, 1616, 1616, 1618, 1643, 1672, 1695, 1713, 1735, 1756, 1778, 1800, 1826, 1850, 1864, 1879, 1900, 1927, 1946, 1972, 2003, 2032, 2042, 2050, 2049, 2044, 2026, 2012, 2001, 1994, 1979, 1962, 1948, 1929, 1899, 1866, 1847, 1829, 1805, 1787, 1781, 1778, 1780, 1786, 1800, 1810, 1815, 1824, 1851, 1879, 1891, 1895, 1898, 1892, 1882, 1885, 1896, 1906, 1908, 1907, 1901, 1901, 1895, 1892, 1890, 1886, 1872, 1855, 1839, 1833, 1834, 1837, 1850, 1868, 1877, 1873, 1877, 1886, 1879, 1867, 1873, 1873, 1861, 1859, 1875, 1899, 1924, 1954, 1986, 2018, 2034, 2032, 2029, 2040, 2058, 2070, 2085, 2102, 2108, 2090, 2062, 2038, 2008, 1962, 1923, 1904, 1893, 1883, 1882, 1886, 1888, 1881, 1875, 1875, 1874, 1862, 1861, 1862, 1856, 1848, 1850, 1860, 1865, 1860, 1853, 1842, 1831, 1882, 2071, 2447, 3016, 3602, 3929, 3931, 3684, 3233, 2733, 2383, 2182, 2016, 1855, 1715, 1620, 1565, 1548, 1543, 1538, 1535, 1547, 1570, 1586, 1599, 1615, 1633, 1645, 1657, 1677, 1702, 1714, 1719, 1730, 1748, 1772, 1795, 1819, 1855, 1893, 1912, 1935, 1966, 1987, 1991, 2002, 2016, 2020, 2009, 1990, 1986, 1980, 1961, 1936, 1922, 1905, 1879, 1860, 1848, 1830, 1801, 1782, 1771, 1766, 1754, 1745, 1746, 1756, 1772, 1798, 1827, 1850, 1860, 1870, 1892, 1917, 1923, 1926, 1926, 1917, 1901, 1895, 1893, 1903, 1902, 1895, 1894, 1901, 1894, 1887, 1888, 1892, 1886, 1880, 1879, 1879, 1874, 1876, 1883, 1893, 1890, 1889, 1897, 1907, 1916, 1939, 1965, 1986, 2005, 2016, 2027, 2033, 2044, 2057, 2084, 2104, 2124, 2137, 2134, 2116, 2086, 2043, 1988, 1937, 1899, 1877, 1863, 1854, 1852, 1845, 1833, 1826, 1824, 1821, 1822, 1833, 1842, 1846, 1858, 1865, 1859, 1849, 1847, 1842, 1835, 1841, 1935, 2157, 2549, 3123, 3697, 3981, 3931, 3645, 3175, 2684, 2350, 2150, 1992, 1839, 1702, 1604, 1566, 1562, 1564, 1560, 1565, 1577, 1586, 1597, 1620, 1656, 1691, 1710, 1720, 1731, 1740, 1746, 1755, 1765, 1772, 1776, 1790, 1811, 1843, 1878, 1917, 1955, 1988, 2008, 2015, 2016, 2015, 2007, 1990, 1977, 1967, 1946, 1933, 1927, 1921, 1902, 1885, 1863, 1840, 1809, 1790, 1771, 1757, 1746, 1756, 1775, 1791, 1793, 1800, 1812, 1825, 1842, 1869, 1897, 1915, 1915, 1910, 1920, 1928, 1923, 1925, 1931, 1922, 1905, 1901, 1902, 1902, 1899, 1894, 1893, 1889, 1881, 1880, 1890, 1892, 1892, 1890, 1892, 1895, 1901, 1900, 1907, 1925, 1944, 1958, 1981, 2000, 2011, 2022, 2051, 2082, 2104, 2109, 2114, 2110, 2080, 2043, 2014, 1982, 1931, 1892, 1879, 1881, 1871, 1863, 1857, 1842, 1827, 1822, 1822, 1826, 1835, 1831, 1823, 1820, 1814, 1814, 1821, 1832, 1838, 1843, 1841, 1856, 1964, 2230, 2701, 3311, 3771, 3887, 3731, 3374, 2881, 2471, 2244, 2110, 1962, 1794, 1661, 1600, 1571, 1552, 1544, 1548, 1557, 1564, 1581, 1607, 1630, 1643, 1652, 1659, 1665, 1677, 1699, 1728, 1753, 1764, 1769, 1781, 1804, 1840, 1875, 1913, 1949, 1982, 2006, 2026, 2043, 2045, 2037, 2037, 2036, 2028, 2016, 1998, 1974, 1960, 1952, 1946, 1928, 1893, 1851, 1823, 1805, 1798, 1799, 1809, 1803, 1786, 1779, 1797, 1824, 1858, 1884, 1903, 1907, 1905, 1904, 1910, 1918, 1925, 1929, 1937, 1946, 1949, 1942, 1933, 1923, 1909, 1903, 1919, 1926, 1926, 1922, 1903, 1877, 1871, 1877, 1885, 1890, 1901, 1918, 1930, 1933, 1947, 1976, 2005, 2030, 2058, 2093, 2117, 2128, 2141, 2163, 2165, 2136, 2099, 2068, 2035, 1994, 1959, 1925, 1888, 1852, 1834, 1842, 1856, 1854, 1837, 1821, 1806, 1798, 1802, 1818, 1833, 1833, 1831, 1833, 1837, 1833, 1827, 1820, 1827, 1904, 2127, 2555, 3168, 3716, 3937, 3851, 3551, 3073, 2601, 2317, 2159, 1996, 1822, 1685, 1607, 1566, 1546, 1542, 1541, 1544, 1551, 1562, 1574, 1587, 1600, 1627, 1664, 1688, 1699, 1709, 1726, 1733, 1746, 1773, 1812, 1837, 1857, 1876, 1894, 1912, 1941, 1976, 2007, 2023, 2027, 2020, 2012, 2008, 2003, 2001, 1997, 1978, 1946, 1917, 1898, 1878, 1857, 1847, 1843, 1830, 1806, 1797, 1803, 1811, 1815, 1823, 1829, 1833, 1834, 1848, 1869, 1887, 1899, 1906, 1918, 1932, 1945, 1950, 1957, 1958, 1945, 1931, 1928, 1917, 1894, 1881, 1881, 1882, 1874, 1871, 1873, 1874, 1866, 1872, 1885, 1892, 1886, 1891, 1904, 1924, 1942, 1970, 1996, 2010, 2020, 2046, 2076, 2105, 2123, 2134, 2134, 2106, 2055, 2009, 1976, 1934, 1891, 1874, 1872, 1860, 1845, 1845, 1843, 1836, 1824, 1823, 1831, 1833, 1826, 1827, 1832, 1835, 1840, 1842, 1839, 1841, 1832, 1823, 1866, 2023, 2334, 2847, 3465, 3896, 3981, 3785, 3376, 2864, 2447, 2197, 2036, 1886, 1730, 1618, 1571, 1558, 1549, 1542, 1548, 1558, 1573, 1592, 1615, 1642, 1664, 1675, 1691, 1712, 1721, 1725, 1740, 1755, 1763, 1779, 1806, 1829, 1849, 1869, 1888, 1913, 1939, 1964, 1992, 2017, 2025, 2022, 2016, 2016, 2007, 1985, 1965, 1960, 1951, 1934, 1920, 1909, 1883, 1847, 1822, 1819, 1811, 1789, 1775, 1778, 1775, 1777, 1796, 1819, 1833, 1845, 1864, 1878, 1879, 1877, 1879, 1885, 1894, 1892, 1893, 1896, 1891, 1887, 1890, 1889, 1875, 1859, 1852, 1857, 1862, 1865, 1871, 1872, 1868, 1869, 1887, 1910, 1928, 1940, 1959, 1970, 1976, 1980, 2006, 2029, 2047, 2059, 2085, 2095, 2082, 2054, 2027, 1988, 1936, 1888, 1858, 1843, 1830, 1824, 1820, 1819, 1814, 1811, 1818, 1835, 1847, 1847, 1847, 1847, 1848, 1843, 1839, 1840, 1836, 1826, 1807, 1813, 1903, 2137, 2576, 3205, 3742, 3948, 3858, 3538, 3039, 2571, 2276, 2097, 1952, 1807, 1686, 1625, 1605, 1579, 1558, 1560, 1569, 1570, 1578, 1599, 1626, 1649, 1668, 1687, 1701, 1703, 1709, 1730, 1757, 1774, 1785, 1805, 1827, 1848, 1871, 1903, 1934, 1961, 1982, 2008, 2032, 2037, 2028, 2023, 2021, 2012, 2005, 2006, 1995, 1967, 1945, 1935, 1919, 1890, 1855, 1834, 1818, 1798, 1786, 1792, 1797, 1791, 1797, 1825, 1848, 1860, 1866, 1874, 1872, 1871, 1874, 1892, 1904, 1909, 1916, 1924, 1927, 1932, 1938, 1939, 1930, 1919, 1913, 1915, 1925, 1927, 1924, 1914, 1907, 1901, 1908, 1926, 1946, 1960, 1978, 2004, 2036, 2070, 2096, 2111, 2117, 2117, 2121, 2136, 2136, 2109, 2067, 2015, 1951, 1904, 1884, 1871, 1856, 1842, 1828, 1821, 1828, 1829, 1824, 1817, 1815, 1802, 1788, 1786, 1808, 1825, 1825, 1821, 1824, 1816, 1792, 1805, 1954, 2263, 2762, 3389, 3844, 3934, 3744, 3368, 2876, 2486, 2272, 2125, 1959, 1785, 1654, 1599, 1596, 1592, 1584, 1580, 1575, 1573, 1585, 1614, 1640, 1659, 1664, 1670, 1680, 1700, 1717, 1732, 1749, 1760, 1765, 1781, 1815, 1852, 1877, 1895, 1912, 1928, 1940, 1957, 1971, 1988, 1991, 1983, 1979, 1974, 1960, 1944, 1936, 1928, 1918, 1899, 1871, 1847, 1826, 1805, 1780, 1770, 1759, 1747, 1753, 1771, 1786, 1794, 1806, 1826, 1847, 1867, 1888, 1907, 1910, 1909, 1914, 1925, 1924, 1920, 1919, 1915, 1899, 1889, 1881, 1879, 1872, 1860, 1859, 1870, 1884, 1888, 1901, 1918, 1935, 1957, 1979, 2011, 2040, 2063, 2077, 2100, 2108, 2114, 2121, 2119, 2095, 2061, 2014, 1953, 1895, 1857, 1834, 1820, 1805, 1793, 1790, 1780, 1761, 1748, 1750, 1758, 1761, 1760, 1764, 1770, 1780, 1796, 1813, 1826, 1827, 1813, 1825, 1954, 2246, 2741, 3382, 3869, 3996, 3825, 3443, 2921, 2487, 2234, 2094, 1952, 1798, 1674, 1620, 1596, 1581, 1567, 1569, 1580, 1586, 1585, 1597, 1619, 1647, 1669, 1688, 1698, 1704, 1706, 1719, 1746, 1773, 1787, 1794, 1807, 1835, 1863, 1894, 1931, 1959, 1970, 1981, 1992, 1995, 1984, 1973, 1972, 1975, 1973, 1973, 1972, 1959, 1931, 1905, 1885, 1864, 1842, 1835, 1840, 1837, 1830, 1829, 1837, 1852, 1863, 1880, 1902, 1920, 1926, 1944, 1965, 1972, 1963, 1961, 1967, 1972, 1977, 1983, 1984, 1976, 1960, 1955, 1960, 1965, 1956, 1951, 1941, 1929, 1924, 1934, 1950, 1969, 1987, 1998, 2011, 2030, 2055, 2076, 2092, 2107, 2117, 2124, 2121, 2103, 2075, 2038, 1993, 1949, 1912, 1881, 1861, 1855, 1859, 1865, 1866, 1857, 1844, 1830, 1828, 1835, 1845, 1848, 1853, 1863, 1859, 1850, 1854, 1866, 1866, 1857, 1912, 2089, 2435, 2997, 3645, 4046, 4097, 3872, 3425, 2890, 2483, 2241, 2069, 1907, 1761, 1666, 1624, 1606, 1587, 1571, 1576, 1590, 1601, 1614, 1634, 1653, 1670, 1689, 1709, 1729, 1742, 1757, 1780, 1808, 1822, 1826, 1838, 1855, 1872, 1893, 1924, 1952, 1971, 1985, 2000, 2009, 2001, 1992, 1990, 1988, 1982, 1973, 1960, 1942, 1921, 1899, 1884, 1874, 1860, 1835, 1817, 1811, 1807, 1798, 1797, 1802, 1801, 1798, 1814, 1836, 1845, 1850, 1862, 1874, 1882, 1891, 1900, 1904, 1898, 1891, 1894, 1902, 1905, 1898, 1890, 1893, 1889, 1878, 1869, 1867, 1855, 1845, 1846, 1862, 1878, 1882, 1886, 1903, 1932, 1953, 1971, 1988, 2000, 2008, 2019, 2038, 2056, 2059, 2049, 2029, 1998, 1959, 1917, 1878, 1850, 1827, 1812, 1806, 1805, 1801, 1803, 1805, 1805, 1796, 1797, 1805, 1812, 1811, 1813, 1816, 1817, 1815, 1824, 1835, 1833, 1813, 1824, 1934, 2208, 2696, 3342, 3854, 4023, 3891, 3517, 2994, 2540, 2259, 2079, 1931, 1787, 1667, 1597, 1573, 1564, 1548, 1545, 1573, 1609, 1621, 1625, 1633, 1637, 1638, 1652, 1682, 1730, 1744, 1764, 1784, 1796, 1812, 1838, 1858, 1877, 1898, 1929, 1957, 1982, 2000, 2021, 2031, 2022, 2006, 1996, 1986, 1975, 1971, 1972, 1973, 1960, 1933, 1902, 1885, 1869, 1853, 1841, 1828, 1813, 1797, 1798, 1815, 1833, 1841, 1852, 1865, 1869, 1872, 1886, 1905, 1907, 1902, 1900, 1899, 1895, 1898, 1907, 1912, 1907, 1893, 1878, 1876, 1883, 1885, 1892, 1898, 1892, 1879, 1874, 1877, 1878, 1871, 1870, 1874, 1878, 1886, 1912, 1943, 1964, 1972, 1978, 1982, 1990, 2011, 2039, 2065, 2079, 2079, 2068, 2050, 2027, 1996, 1961, 1926, 1897, 1880, 1865, 1849, 1843, 1836, 1834, 1840, 1846, 1836, 1819, 1814, 1822, 1837, 1847, 1857, 1865, 1862, 1852, 1862, 1863, 1847, 1865, 2005, 2299, 2793, 3393, 3807, 3878, 3684, 3291, 2805, 2435, 2217, 2060, 1909, 1755, 1629, 1575, 1572, 1575, 1569, 1567, 1576, 1589, 1594, 1595, 1609, 1626, 1638, 1652, 1678, 1697, 1703, 1709, 1730, 1757, 1787, 1811, 1837, 1861, 1875, 1898, 1937, 1976, 1998, 2011, 2020, 2022, 2007, 1985, 1982, 1981, 1971, 1957, 1955, 1947, 1924, 1899, 1876, 1855, 1832, 1816, 1802, 1794, 1784, 1777, 1778, 1784, 1792, 1807, 1828, 1845, 1862, 1877, 1886, 1896, 1897, 1887, 1879, 1886, 1891, 1891, 1902, 1915, 1912, 1902, 1910, 1921, 1917, 1901, 1879, 1861, 1849, 1847, 1860, 1879, 1881, 1870, 1864, 1865, 1878, 1900, 1926, 1955, 1974, 1980, 1984, 2004, 2021, 2036, 2060, 2093, 2104, 2102, 2091, 2065, 2022, 1969, 1920, 1886, 1864, 1839, 1822, 1820, 1821, 1812, 1807, 1813, 1821, 1821, 1823, 1833, 1842, 1840, 1837, 1831, 1822, 1811, 1814, 1826, 1845, 1861, 1937, 2160, 2562, 3143, 3696, 3944, 3862, 3562, 3103, 2651, 2362, 2196, 2050, 1879, 1722, 1634, 1603, 1585, 1572, 1578, 1591, 1610, 1626, 1631, 1635, 1645, 1655, 1661, 1681, 1707, 1732, 1748, 1770, 1798, 1825, 1845, 1868, 1894, 1908, 1916, 1943, 1985, 2026, 2059, 2081, 2081, 2069, 2057, 2059, 2071, 2082, 2078, 2065, 2047, 2030, 2011, 1996, 1980, 1953, 1923, 1901, 1887, 1882, 1875, 1872, 1882, 1892, 1903, 1930, 1954, 1969, 1975, 1977, 1982, 1994, 2001, 2003, 2005, 2006, 2001, 1989, 1992, 2005, 2005, 2000, 2011, 2019, 2016, 2022, 2032, 2029, 2016, 2001, 1996, 1992, 1996, 1997, 2007, 2021, 2030, 2042, 2072, 2099, 2111, 2123, 2137, 2151, 2169, 2189, 2206, 2215, 2209, 2195, 2168, 2137, 2102, 2063, 2031, 2008, 1981, 1958, 1947, 1946, 1942, 1939, 1941, 1954, 1960, 1961, 1967, 1966, 1952, 1940, 1940, 1951, 1964, 1970, 1966, 1951, 1932, 1950, 2093, 2411, 2944, 3580, 4019, 4116, 3933, 3522, 2998, 2589, 2349, 2181, 2019, 1867, 1757, 1701, 1686, 1692, 1695, 1694, 1699, 1703, 1707, 1712, 1736, 1766, 1789, 1801, 1819, 1837, 1849, 1857, 1875, 1900, 1914, 1913, 1924, 1947, 1967, 1984, 2013, 2047, 2074, 2086, 2093, 2106, 2112, 2106, 2093, 2086, 2075, 2061, 2045, 2031, 2013, 1987, 1956, 1931, 1919, 1904, 1897, 1893, 1883, 1866, 1861, 1857, 1856, 1863, 1880, 1900, 1925, 1942, 1950, 1958, 1968, 1971, 1975, 1981, 1984, 1981, 1977, 1979, 1984, 1975, 1962, 1960, 1961, 1957, 1958, 1965, 1965, 1957, 1949, 1953, 1952, 1938, 1928, 1930, 1931, 1924, 1925, 1940, 1957, 1970, 1986, 2014, 2038, 2040, 2030, 2037, 2055, 2068, 2084, 2111, 2124, 2105, 2072, 2043, 2010, 1972, 1947, 1934, 1920, 1900, 1889, 1881, 1871, 1860, 1847, 1840, 1837, 1832, 1829, 1839, 1854, 1862, 1865, 1880, 1889, 1878, 1863, 1856, 1846, 1879, 2024, 2332, 2844, 3448, 3854, 3944, 3774, 3382, 2870, 2467, 2229, 2063, 1896, 1748, 1652, 1595, 1565, 1555, 1547, 1531, 1528, 1541, 1559, 1576, 1595, 1610, 1624, 1630, 1638, 1652, 1675, 1692, 1709, 1733, 1765, 1782, 1793, 1810, 1838, 1864, 1893, 1925, 1950, 1958, 1961, 1964, 1969, 1961, 1946, 1932, 1927, 1913, 1901, 1890, 1872, 1843, 1812, 1788, 1777, 1766, 1757, 1753, 1762, 1761, 1753, 1750, 1764, 1777, 1788, 1812, 1838, 1845, 1838, 1834, 1837, 1843, 1843, 1843, 1847, 1848, 1835, 1830, 1834, 1834, 1827, 1831, 1829, 1820, 1813, 1816, 1825, 1837, 1838, 1831, 1824, 1808, 1796, 1804, 1826, 1845, 1852, 1857, 1871, 1883, 1896, 1909, 1917, 1920, 1930, 1940, 1959, 1977, 1984, 1981, 1973, 1951, 1913, 1874, 1835, 1801, 1773, 1770, 1785, 1794, 1789, 1796, 1808, 1812, 1802, 1792, 1788, 1793, 1793, 1795, 1803, 1809, 1797, 1785, 1789, 1805, 1807, 1817, 1917, 2154, 2573, 3164, 3663, 3826, 3697, 3368, 2891, 2470, 2221, 2064, 1911, 1746, 1613, 1549, 1544, 1549, 1544, 1529, 1530, 1536, 1542, 1546, 1561, 1575, 1590, 1614, 1640, 1665, 1679, 1681, 1676, 1682, 1693, 1711, 1740, 1774, 1802, 1825, 1858, 1891, 1911, 1923, 1941, 1953, 1950, 1950, 1959, 1965, 1952, 1930, 1911, 1892, 1872, 1850, 1836, 1821, 1797, 1762, 1739, 1735, 1732, 1727, 1722, 1720, 1724, 1731, 1744, 1772, 1798, 1805, 1812, 1827, 1835, 1835, 1842, 1845, 1835, 1832, 1838, 1840, 1830, 1827, 1829, 1833, 1837, 1841, 1834, 1829, 1817, 1803, 1799, 1798, 1791, 1784, 1778, 1778, 1790, 1809, 1834, 1870, 1906, 1933, 1947, 1959, 1973, 1986, 2006, 2035, 2057, 2065, 2069, 2064, 2045, 2011, 1968, 1923, 1883, 1846, 1815, 1801, 1795, 1784, 1777, 1785, 1799, 1797, 1799, 1808, 1806, 1793, 1793, 1796, 1801, 1804, 1803, 1802, 1803, 1790, 1797, 1905, 2158, 2586, 3191, 3723, 3926, 3823, 3515, 3040, 2589, 2311, 2136, 1971, 1806, 1672, 1604, 1586, 1576, 1554, 1543, 1541, 1551, 1570, 1594, 1613, 1624, 1635, 1666, 1685, 1706, 1724, 1731, 1719, 1732, 1744, 1757, 1785, 1814, 1835, 1858, 1899, 1932, 1951, 1966, 1982, 1994, 1993, 1988, 1985, 1989, 1975, 1961, 1952, 1943, 1923, 1906, 1891, 1873, 1845, 1822, 1812, 1807, 1808, 1817, 1821, 1819, 1814, 1818, 1830, 1849, 1869, 1882, 1894, 1905, 1910, 1906, 1909, 1914, 1915, 1912, 1912, 1906, 1896, 1886, 1880, 1877, 1862, 1843, 1834, 1833, 1828, 1834, 1855, 1866, 1864, 1864, 1876, 1891, 1895, 1903, 1930, 1955, 1963, 1970, 1985, 1998, 2009, 2022, 2045, 2075, 2094, 2083, 2062, 2036, 1999, 1953, 1915, 1889, 1863, 1837, 1830, 1842, 1844, 1844, 1855, 1862, 1855, 1839, 1831, 1825, 1819, 1817, 1834, 1841, 1838, 1833, 1832, 1832, 1831, 1867, 2016, 2337, 2867, 3495, 3922, 4004, 3803, 3383, 2857, 2452, 2219, 2061, 1913, 1780, 1680, 1619, 1592, 1582, 1576, 1582, 1601, 1623, 1642, 1649, 1651, 1663, 1685, 1703, 1728, 1757, 1777, 1785, 1794, 1810, 1833, 1851, 1867, 1894, 1924, 1946, 1979, 2024, 2059, 2072, 2087, 2096, 2089, 2071, 2064, 2066, 2064, 2058, 2052, 2047, 2031, 2006, 1978, 1957, 1940, 1920, 1899, 1900, 1910, 1909, 1905, 1916, 1929, 1931, 1936, 1958, 1981, 1985, 1984, 1990, 1994, 1992, 1992, 2007, 2019, 2012, 2000, 1993, 1988, 1981, 1984, 1993, 2000, 1998, 1987, 1979, 1976, 1974, 1969, 1965, 1965, 1968, 1965, 1963, 1964, 1958, 1954, 1967, 1993, 2018, 2041, 2067, 2085, 2079, 2066, 2072, 2089, 2103, 2123, 2152, 2176, 2171, 2152, 2129, 2105, 2064, 2027, 2002, 1988, 1976, 1966, 1963, 1966, 1959, 1945, 1944, 1944, 1941, 1936, 1934, 1933, 1931, 1928, 1933, 1946, 1951, 1943, 1927, 1908, 1915, 2027, 2298, 2783, 3407, 3884, 4034, 3910, 3558, 3046, 2603, 2332, 2150, 1987, 1841, 1738, 1684, 1663, 1649, 1641, 1638, 1636, 1640, 1656, 1674, 1687, 1699, 1717, 1733, 1741, 1751, 1770, 1788, 1795, 1803, 1821, 1846, 1864, 1890, 1925, 1953, 1968, 1994, 2019, 2036, 2047, 2058, 2061, 2052, 2035, 2015, 1998, 1975, 1956, 1944, 1933, 1908, 1878, 1849, 1826, 1809, 1796, 1796, 1806, 1803, 1790, 1784, 1789, 1796, 1806, 1830, 1856, 1874, 1878, 1880, 1884, 1887, 1887, 1892, 1902, 1910, 1906, 1895, 1892, 1898, 1896, 1897, 1902, 1906, 1894, 1891, 1892, 1896, 1889, 1891, 1898, 1903, 1900, 1896, 1893, 1890, 1895, 1911, 1937, 1964, 1988, 1996, 2002, 2013, 2026, 2039, 2051, 2059, 2061, 2048, 2025, 2001, 1966, 1920, 1881, 1850, 1835, 1825, 1818, 1813, 1809, 1806, 1810, 1818, 1813, 1794, 1790, 1798, 1806, 1818, 1837, 1845, 1835, 1825, 1824, 1825, 1825, 1866, 2015, 2310, 2799, 3382, 3780, 3860, 3679, 3290, 2794, 2411, 2180, 2023, 1875, 1736, 1638, 1599, 1586, 1584, 1589, 1583, 1569, 1572, 1583, 1591, 1606, 1633, 1657, 1670, 1681, 1696, 1708, 1713, 1730, 1761, 1792, 1811, 1830, 1851, 1860, 1861, 1884, 1923, 1949, 1955, 1951, 1941, 1913, 1881, 1871, 1882, 1893, 1896, 1895, 1885, 1855, 1819, 1794, 1774, 1750, 1741, 1734, 1720, 1708, 1698, 1694, 1696, 1705, 1716, 1747, 1783, 1807, 1815, 1825, 1838, 1845, 1853, 1863, 1870, 1868, 1854, 1835, 1829, 1829, 1825, 1831, 1842, 1841, 1833, 1825, 1812, 1803, 1802, 1809, 1820, 1829, 1832, 1830, 1839, 1854, 1864, 1885, 1909, 1921, 1921, 1939, 1968, 1998, 2022, 2034, 2033, 2020, 1998, 1970, 1939, 1908, 1865, 1828, 1802, 1796, 1793, 1798, 1805, 1802, 1782, 1762, 1761, 1773, 1781, 1792, 1809, 1811, 1790, 1772, 1770, 1775, 1780, 1787, 1798, 1800, 1859, 2069, 2492, 3105, 3641, 3838, 3726, 3416, 2948, 2524, 2288, 2151, 1988, 1804, 1655, 1581, 1553, 1540, 1535, 1534, 1536, 1539, 1551, 1570, 1587, 1606, 1630, 1656, 1666, 1665, 1669, 1689, 1711, 1723, 1742, 1765, 1781, 1792, 1820, 1860, 1897, 1928, 1947, 1963, 1975, 1988, 1997, 2009, 2020, 2016, 2000, 1988, 1976, 1956, 1941, 1918, 1887, 1846, 1818, 1804, 1797, 1789, 1784, 1774, 1760, 1753, 1769, 1799, 1824, 1838, 1853, 1870, 1887, 1901, 1911, 1912, 1906, 1897, 1898, 1907, 1911, 1910, 1906, 1900, 1897, 1892, 1888, 1887, 1882, 1871, 1871, 1877, 1872, 1859, 1852, 1859, 1870, 1879, 1896, 1928, 1953, 1960, 1970, 1992, 2013, 2031, 2061, 2084, 2090, 2073, 2040, 2006, 1974, 1936, 1904, 1883, 1869, 1849, 1836, 1832, 1832, 1824, 1820, 1823, 1819, 1812, 1805, 1808, 1806, 1799, 1794, 1805, 1811, 1806, 1804, 1804, 1792, 1827, 1999, 2349, 2893, 3506, 3897, 3942, 3722, 3298, 2789, 2406, 2189, 2033, 1864, 1702, 1592, 1535, 1515, 1513, 1514, 1515, 1521, 1526, 1539, 1557, 1579, 1605, 1628, 1639, 1649, 1667, 1682, 1695, 1713, 1736, 1770, 1803, 1828, 1857, 1890, 1910, 1927, 1952, 1978, 1990, 1987, 1983, 1984, 1987, 1985, 1974, 1966, 1954, 1930, 1911, 1898, 1877, 1848, 1819, 1795, 1775, 1759, 1755, 1759, 1761, 1767, 1786, 1805, 1824, 1840, 1853, 1862, 1870, 1875, 1878, 1889, 1891, 1890, 1885, 1892, 1895, 1899, 1897, 1896, 1889, 1879, 1873, 1873, 1865, 1855, 1851, 1855, 1858, 1861, 1868, 1879, 1888, 1908, 1934, 1963, 1987, 2004, 2011, 2020, 2024, 2030, 2045, 2067, 2080, 2091, 2099, 2093, 2068, 2037, 2007, 1967, 1926, 1895, 1880, 1862, 1846, 1837, 1828, 1821, 1818, 1818, 1814, 1820, 1823, 1823, 1825, 1836, 1840, 1837, 1838, 1839, 1838, 1826, 1828, 1908, 2117, 2500, 3073, 3626, 3893, 3848, 3565, 3095, 2614, 2282, 2078, 1919, 1767, 1631, 1556, 1536, 1535, 1531, 1532, 1541, 1554, 1566, 1589, 1619, 1636, 1638, 1641, 1650, 1657, 1673, 1704, 1741, 1768, 1788, 1805, 1823, 1837, 1853, 1884, 1922, 1954, 1975, 1991, 2006, 2016, 2017, 2021, 2023, 2024, 2019, 2018, 2009, 1989, 1955, 1921, 1897, 1884, 1870, 1855, 1847, 1839, 1820, 1806, 1810, 1814, 1814, 1826, 1846, 1860, 1862, 1862, 1871, 1883, 1885, 1887, 1895, 1909, 1909, 1909, 1917, 1931, 1921, 1906, 1899, 1900, 1894, 1895, 1906, 1918, 1915, 1906, 1908, 1913, 1909, 1900, 1899, 1909, 1930, 1953, 1971, 1980, 1979, 1966, 1967, 1989, 2013, 2027, 2039, 2051, 2055, 2052, 2048, 2040, 2006, 1959, 1917, 1887, 1863, 1849, 1842, 1844, 1841, 1834, 1841, 1854, 1851, 1834, 1822, 1816, 1809, 1800, 1800, 1817, 1829, 1834, 1841, 1847, 1831, 1830, 1946, 2229, 2702, 3307, 3774, 3898, 3732, 3360, 2866, 2460, 2226, 2081, 1945, 1799, 1674, 1611, 1595, 1589, 1582, 1578, 1578, 1582, 1592, 1607, 1631, 1657, 1676, 1685, 1698, 1712, 1725, 1734, 1749, 1774, 1796, 1807, 1820, 1837, 1855, 1874, 1908, 1948, 1974, 1981, 1987, 1993, 1996, 1994, 1995, 1986, 1965, 1945, 1929, 1921, 1914, 1900, 1883, 1864, 1837, 1807, 1781, 1777, 1780, 1776, 1772, 1778, 1773, 1766, 1778, 1810, 1841, 1861, 1877, 1888, 1890, 1886, 1898, 1919, 1930, 1926, 1924, 1917, 1904, 1892, 1894, 1896, 1897, 1898, 1898, 1892, 1884, 1874, 1869, 1872, 1879, 1881, 1886, 1890, 1898, 1906, 1916, 1937, 1968, 1991, 2009, 2021, 2026, 2026, 2040, 2056, 2079, 2099, 2095, 2071, 2049, 2016, 1975, 1941, 1908, 1876, 1853, 1840, 1833, 1836, 1839, 1838, 1836, 1826, 1812, 1800, 1796, 1790, 1788, 1794, 1803, 1806, 1817, 1827, 1836, 1848, 1868, 1954, 2176, 2581, 3159, 3690, 3907, 3805, 3493, 3032, 2596, 2331, 2182, 2036, 1866, 1716, 1634, 1612, 1603, 1586, 1569, 1564, 1572, 1591, 1617, 1646, 1674, 1689, 1697, 1703, 1709, 1711, 1717, 1732, 1757, 1781, 1805, 1827, 1846, 1855, 1868, 1896, 1933, 1960, 1973, 1976, 1980, 1976, 1971, 1983, 1992, 1981, 1963, 1951, 1938, 1924, 1910, 1885, 1859, 1839, 1820, 1802, 1802, 1804, 1799, 1800, 1810, 1823, 1836, 1854, 1868, 1873, 1878, 1890, 1903, 1917, 1933, 1944, 1948, 1949, 1942, 1941, 1939, 1929, 1925, 1937, 1946, 1942, 1921, 1903, 1888, 1880, 1879, 1894, 1905, 1904, 1894, 1894, 1908, 1918, 1928, 1947, 1969, 1978, 1987, 2007, 2029, 2036, 2035, 2051, 2073, 2081, 2083, 2092, 2092, 2077, 2044, 2014, 1990, 1955, 1907, 1877, 1863, 1853, 1845, 1847, 1861, 1872, 1868, 1868, 1873, 1869, 1859, 1862, 1872, 1873, 1866, 1863, 1858, 1858, 1855, 1850, 1844, 1901, 2082, 2449, 3025, 3633, 3964, 3955, 3699, 3250, 2744, 2385, 2176, 2008, 1834, 1686, 1600, 1576, 1578, 1578, 1576, 1581, 1581, 1586, 1600, 1613, 1621, 1639, 1661, 1681, 1697, 1717, 1738, 1744, 1748, 1758, 1778, 1801, 1825, 1851, 1881, 1904, 1915, 1929, 1947, 1963, 1971, 1978, 1985, 1982, 1971, 1967, 1969, 1965, 1954, 1944, 1935, 1917, 1894, 1875, 1856, 1837, 1817, 1807, 1811, 1818, 1817, 1823, 1841, 1860, 1869, 1875, 1889, 1895, 1892, 1897, 1916, 1929, 1935, 1936, 1938, 1935, 1925, 1926, 1930, 1931, 1921, 1909, 1900, 1901, 1899, 1902, 1909, 1912, 1899, 1884, 1873, 1868, 1860, 1854, 1857, 1867, 1874, 1877, 1890, 1907, 1923, 1944, 1967, 1978, 1975, 1966, 1976, 2001, 2020, 2046, 2072, 2072, 2049, 2025, 2000, 1969, 1933, 1899, 1881, 1875, 1861, 1851, 1858, 1865, 1857, 1844, 1842, 1849, 1838, 1830, 1833, 1842, 1841, 1842, 1841, 1851, 1852, 1846, 1844, 1858, 1934, 2150, 2555, 3140, 3682, 3919, 3843, 3539, 3055, 2574, 2266, 2095, 1950, 1806, 1682, 1609, 1574, 1561, 1556, 1561, 1573, 1580, 1585, 1589, 1594, 1600, 1623, 1657, 1683, 1702, 1728, 1756, 1772, 1787, 1809, 1838, 1858, 1878, 1899, 1925, 1948, 1970, 1987, 2008, 2020, 2019, 2020, 2018, 2005, 1996, 1991, 1981, 1964, 1950, 1935, 1921, 1900, 1883, 1860, 1839, 1817, 1802, 1787, 1782, 1779, 1778, 1781, 1798, 1818, 1840, 1861, 1881, 1889, 1894, 1901, 1908, 1905, 1893, 1875, 1858, 1849, 1862, 1878, 1891, 1895, 1885, 1865, 1856, 1857, 1853, 1848, 1842, 1840, 1839, 1846, 1860, 1874, 1879, 1872, 1865, 1865, 1863, 1864, 1888, 1922, 1945, 1967, 1987, 1988, 1969, 1971, 1996, 2025, 2043, 2068, 2082, 2078, 2054, 2031, 2008, 1981, 1937, 1901, 1893, 1894, 1878, 1858, 1846, 1837, 1826, 1823, 1826, 1832, 1836, 1834, 1835, 1838, 1842, 1838, 1833, 1832, 1840, 1845, 1842, 1856, 1974, 2255, 2741, 3342, 3761, 3829, 3634, 3253, 2767, 2388, 2199, 2077, 1922, 1767, 1674, 1636, 1615, 1603, 1590, 1580, 1574, 1583, 1606, 1634, 1652, 1671, 1694, 1713, 1720, 1726, 1742, 1764, 1776, 1779, 1790, 1808, 1823, 1846, 1891, 1939, 1963, 1967, 1972, 1986, 1996, 2005, 2023, 2030, 2013, 1995, 1989, 1980, 1965, 1944, 1929, 1913, 1889, 1860, 1841, 1821, 1799, 1774, 1764, 1764, 1758, 1744, 1745, 1760, 1773, 1787, 1813, 1834, 1839, 1837, 1845, 1857, 1867, 1874, 1885, 1888, 1881, 1881, 1891, 1901, 1903, 1897, 1892, 1880, 1867, 1856, 1859, 1867, 1877, 1878, 1876, 1876, 1870, 1862, 1863, 1876, 1894, 1918, 1948, 1984, 2014, 2032, 2035, 2037, 2037, 2044, 2060, 2088, 2112, 2118, 2106, 2076, 2027, 1970, 1920, 1889, 1871, 1853, 1841, 1835, 1823, 1805, 1792, 1793, 1784, 1761, 1755, 1768, 1781, 1788, 1793, 1797, 1794, 1784, 1776, 1784, 1799, 1800, 1846, 2034, 2401, 2954, 3553, 3904, 3913, 3667, 3229, 2732, 2388, 2191, 2040, 1894, 1765, 1668, 1623, 1606, 1588, 1577, 1588, 1607, 1619, 1616, 1619, 1631, 1649, 1662, 1681, 1694, 1707, 1715, 1729, 1747, 1777, 1804, 1828, 1856, 1888, 1916, 1933, 1955, 1983, 2005, 2018, 2028, 2033, 2027, 2009, 1989, 1981, 1968, 1953, 1944, 1933, 1912, 1895, 1879, 1860, 1835, 1810, 1795, 1790, 1784, 1780, 1788, 1797, 1803, 1821, 1854, 1886, 1910, 1927, 1937, 1945, 1946, 1943, 1949, 1959, 1958, 1946, 1932, 1922, 1915, 1907, 1904, 1912, 1911, 1895, 1891, 1894, 1893, 1901, 1918, 1919, 1905, 1893, 1888, 1899, 1922, 1954, 1984, 2009, 2017, 2014, 2016, 2028, 2045, 2067, 2091, 2118, 2127, 2105, 2064, 2030, 1982, 1918, 1873, 1851, 1827, 1809, 1813, 1827, 1834, 1836, 1836, 1839, 1828, 1805, 1794, 1799, 1807, 1812, 1825, 1834, 1844, 1847, 1850, 1846, 1849, 1921, 2134, 2543, 3152, 3735, 4011, 3962, 3671, 3180, 2678, 2345, 2149, 1980, 1815, 1683, 1605, 1575, 1568, 1567, 1559, 1556, 1565, 1583, 1601, 1623, 1643, 1661, 1675, 1686, 1701, 1729, 1753, 1768, 1786, 1807, 1821, 1833, 1850, 1872, 1893, 1908, 1931, 1958, 1985, 2011, 2024, 2018, 2004, 1988, 1968, 1961, 1962, 1958, 1946, 1929, 1912, 1892, 1872, 1864, 1859, 1845, 1826, 1813, 1801, 1781, 1767, 1779, 1803, 1822, 1838, 1854, 1867, 1873, 1882, 1894, 1901, 1895, 1884, 1876, 1884, 1907, 1920, 1919, 1911, 1891, 1871, 1871, 1884, 1881, 1870, 1859, 1850, 1847, 1854, 1867, 1877, 1876, 1869, 1872, 1885, 1899, 1912, 1929, 1945, 1953, 1955, 1966, 1990, 2016, 2034, 2046, 2054, 2046, 2032, 2025, 2025, 2008, 1966, 1921, 1883, 1853, 1829, 1822, 1824, 1831, 1830, 1832, 1836, 1839, 1832, 1822, 1813, 1811, 1808, 1820, 1837, 1841, 1839, 1844, 1843, 1840, 1900, 2081, 2422, 2961, 3563, 3922, 3941, 3705, 3271, 2764, 2392, 2182, 2033, 1873, 1718, 1618, 1576, 1567, 1564, 1560, 1553, 1552, 1554, 1554, 1555, 1575, 1605, 1627, 1637, 1657, 1681, 1693, 1692, 1710, 1732, 1747, 1759, 1783, 1816, 1850, 1878, 1907, 1934, 1949, 1961, 1970, 1971, 1966, 1968, 1965, 1959, 1951, 1942, 1925, 1908, 1896, 1888, 1878, 1860, 1840, 1816, 1803, 1804, 1810, 1805, 1795, 1784, 1780, 1782, 1806, 1847, 1876, 1887, 1896, 1900, 1902, 1913, 1921, 1919, 1912, 1905, 1903, 1914, 1923, 1918, 1901, 1878, 1865, 1858, 1862, 1884, 1889, 1893, 1899, 1902, 1890, 1891, 1887, 1897, 1914, 1933, 1953, 1974, 1997, 2019, 2047, 2082, 2103, 2102, 2103, 2102, 2086, 2058, 2023, 1975, 1921, 1871, 1837, 1820, 1810, 1797, 1791, 1798, 1803, 1795, 1791, 1788, 1790, 1794, 1801, 1804, 1809, 1803, 1800, 1815, 1833, 1826, 1812, 1837, 1976, 2287, 2809, 3458, 3915, 3992, 3782, 3389, 2878, 2462, 2240, 2108, 1959, 1787, 1647, 1574, 1542, 1525, 1526, 1545, 1565, 1571, 1575, 1582, 1591, 1606, 1634, 1662, 1688, 1709, 1733, 1752, 1768, 1783, 1796, 1803, 1814, 1822, 1833, 1854, 1889, 1921, 1948, 1976, 2004, 2019, 2010, 2000, 2000, 1997, 1977, 1963, 1966, 1962, 1942, 1925, 1910, 1880, 1846, 1831, 1834, 1838, 1834, 1834, 1837, 1836, 1837, 1855, 1872, 1882, 1893, 1910, 1921, 1922, 1925, 1926, 1924, 1919, 1919, 1912, 1903, 1900, 1899, 1900, 1900, 1901, 1902, 1900, 1899, 1903, 1905, 1904, 1915, 1929, 1941, 1955, 1972, 1983, 1983, 1986, 2001, 2026, 2046, 2075, 2106, 2126, 2125, 2111, 2088, 2059, 2015, 1965, 1923, 1892, 1864, 1841, 1831, 1832, 1827, 1824, 1826, 1831, 1833, 1833, 1826, 1823, 1815, 1813, 1811, 1820, 1826, 1829, 1828, 1828, 1823, 1887, 2097, 2502, 3103, 3707, 4013, 3970, 3672, 3181, 2669, 2318, 2117, 1960, 1803, 1665, 1585, 1562, 1557, 1549, 1540, 1543, 1553, 1563, 1580, 1603, 1628, 1648, 1672, 1691, 1707, 1724, 1740, 1759, 1778, 1792, 1805, 1821, 1837, 1865, 1895, 1922, 1948, 1979, 1993, 2000, 2011, 2024, 2021, 2016, 2004, 1990, 1977, 1967, 1955, 1953, 1941, 1915, 1890, 1876, 1852, 1833, 1825, 1820, 1805, 1806, 1814, 1822, 1834, 1842, 1852, 1866, 1879, 1883, 1895, 1904, 1906, 1900, 1896, 1898, 1909, 1915, 1925, 1935, 1941, 1933, 1926, 1920, 1918, 1913, 1903, 1894, 1892, 1890, 1893, 1909, 1926, 1936, 1954, 1983, 1998, 2012, 2040, 2068, 2078, 2082, 2099, 2112, 2105, 2074, 2039, 2000, 1949, 1895, 1864, 1852, 1840, 1834, 1838, 1842, 1843, 1838, 1831, 1827, 1826, 1824, 1821, 1817, 1814, 1809, 1804, 1800, 1795, 1796, 1794, 1794, 1844, 2010, 2347, 2898, 3511, 3885, 3934, 3723, 3284, 2756, 2369, 2148, 1994, 1844, 1705, 1619, 1582, 1563, 1555, 1566, 1580, 1577, 1572, 1585, 1601, 1600, 1612, 1639, 1656, 1668, 1696, 1724, 1746, 1769, 1795, 1814, 1833, 1852, 1873, 1902, 1938, 1970, 1993, 2017, 2032, 2032, 2027, 2028, 2021, 2010, 1998, 1992, 1979, 1953, 1924, 1901, 1881, 1857, 1833, 1810, 1792, 1770, 1756, 1757, 1760, 1761, 1774, 1792, 1805, 1815, 1826, 1828, 1829, 1826, 1840, 1859, 1877, 1887, 1903, 1915, 1908, 1896, 1883, 1881, 1879, 1883, 1891, 1893, 1883, 1875, 1870, 1868, 1874, 1879, 1875, 1871, 1871, 1877, 1891, 1913, 1941, 1970, 1992, 1999, 1998, 1995, 1996, 2007, 2027, 2047, 2061, 2069, 2061, 2036, 1997, 1958, 1920, 1889, 1865, 1862, 1862, 1859, 1857, 1863, 1861, 1849, 1835, 1824, 1821, 1819, 1817, 1823, 1835, 1836, 1829, 1828, 1831, 1828, 1818, 1857, 2003, 2287, 2763, 3368, 3791, 3878, 3707, 3340, 2853, 2469, 2244, 2092, 1943, 1794, 1670, 1611, 1598, 1590, 1580, 1583, 1598, 1607, 1610, 1624, 1649, 1675, 1692, 1702, 1711, 1716, 1716, 1728, 1754, 1781, 1796, 1810, 1829, 1857, 1884, 1912, 1945, 1970, 1987, 2006, 2029, 2043, 2039, 2023, 2007, 1992, 1981, 1977, 1967, 1949, 1922, 1899, 1878, 1853, 1828, 1804, 1782, 1774, 1776, 1774, 1777, 1783, 1787, 1802, 1836, 1859, 1871, 1882, 1892, 1889, 1890, 1897, 1907, 1911, 1911, 1900, 1882, 1865, 1855, 1859, 1871, 1882, 1884, 1882, 1876, 1870, 1865, 1868, 1879, 1882, 1876, 1867, 1855, 1842, 1836, 1843, 1862, 1880, 1896, 1917, 1951, 1991, 2020, 2031, 2037, 2042, 2045, 2047, 2055, 2061, 2054, 2032, 2003, 1976, 1943, 1910, 1893, 1884, 1867, 1839, 1823, 1817, 1810, 1816, 1839, 1854, 1844, 1834, 1834, 1834, 1831, 1835, 1845, 1852, 1860, 1869, 1868, 1863, 1851, 1898, 2090, 2490, 3079, 3628, 3855, 3765, 3468, 3008, 2567, 2321, 2192, 2051, 1882, 1733, 1642, 1605, 1601, 1601, 1603, 1611, 1627, 1644, 1655, 1658, 1665, 1676, 1687, 1699, 1718, 1739, 1750, 1756, 1771, 1795, 1811, 1829, 1855, 1878, 1888, 1899, 1920, 1944, 1959, 1961, 1956, 1961, 1956, 1943, 1947, 1966, 1970, 1958, 1952, 1950, 1938, 1917, 1892, 1865, 1835, 1810, 1795, 1789, 1785, 1779, 1772, 1775, 1787, 1805, 1833, 1859, 1870, 1875, 1880, 1888, 1893, 1895, 1900, 1908, 1912, 1915, 1917, 1914, 1901, 1888, 1889, 1895, 1895, 1892, 1887, 1876, 1868, 1861, 1859, 1864, 1869, 1868, 1871, 1878, 1880, 1884, 1898, 1921, 1949, 1974, 1987, 1994, 2002, 2010, 2024, 2047, 2062, 2062, 2053, 2036, 2012, 1984, 1951, 1920, 1891, 1862, 1845, 1846, 1851, 1846, 1840, 1835, 1832, 1824, 1832, 1849, 1859, 1859, 1858, 1861, 1860, 1852, 1847, 1858, 1857, 1843, 1882, 2058, 2397, 2928, 3522, 3878, 3888, 3646, 3222, 2738, 2396, 2205, 2064, 1914, 1766, 1658, 1610, 1587, 1572, 1564, 1569, 1582, 1593, 1602, 1607, 1623, 1643, 1661, 1673, 1698, 1717, 1721, 1728, 1751, 1772, 1784, 1800, 1829, 1859, 1883, 1907, 1937, 1960, 1969, 1976, 1990, 1999, 1998, 1991, 1977, 1965, 1955, 1942, 1936, 1939, 1936, 1921, 1906, 1890, 1864, 1836, 1824, 1824, 1822, 1820, 1822, 1830, 1835, 1838, 1851, 1874, 1886, 1887, 1897, 1911, 1919, 1918, 1921, 1926, 1932, 1932, 1932, 1936, 1936, 1917, 1897, 1886, 1875, 1860, 1857, 1865, 1873, 1874, 1875, 1882, 1882, 1882, 1890, 1907, 1927, 1950, 1973, 1989, 2001, 2008, 2027, 2054, 2076, 2091, 2096, 2082, 2051, 2010, 1973, 1935, 1906, 1876, 1859, 1849, 1837, 1819, 1806, 1803, 1805, 1808, 1818, 1829, 1834, 1831, 1829, 1840, 1855, 1859, 1857, 1856, 1843, 1817, 1831, 1954, 2235, 2718, 3354, 3847, 3997, 3844, 3470, 2959, 2516, 2241, 2065, 1908, 1756, 1636, 1580, 1565, 1550, 1528, 1524, 1538, 1559, 1578, 1595, 1610, 1629, 1645, 1670, 1701, 1736, 1756, 1769, 1784, 1800, 1810, 1830, 1855, 1875, 1893, 1913, 1938, 1964, 1984, 2005, 2022, 2028, 2026, 2023, 2014, 2006, 2000, 1994, 1988, 1983, 1965, 1936, 1909, 1888, 1859, 1831, 1815, 1803, 1789, 1787, 1788, 1795, 1808, 1820, 1835, 1855, 1872, 1876, 1880, 1890, 1899, 1899, 1906, 1917, 1914, 1906, 1906, 1902, 1904, 1891, 1891, 1894, 1901, 1890, 1898, 1904, 1902, 1894, 1892, 1894, 1894, 1897, 1913, 1942, 1966, 1984, 1997, 2002, 1998, 2000, 2012, 2032, 2059, 2078, 2088, 2090, 2082, 2058, 2035, 2005, 1965, 1924, 1896, 1873, 1860, 1855, 1858, 1859, 1853, 1842, 1842, 1849, 1853, 1850, 1848, 1847, 1842, 1841, 1850, 1862, 1860, 1844, 1827, 1839, 1945, 2184, 2631, 3247, 3757, 3944, 3848, 3515, 3007, 2539, 2237, 2051, 1895, 1744, 1632, 1583, 1569, 1561, 1557, 1552, 1556, 1564, 1578, 1596, 1618, 1626, 1635, 1648, 1665, 1675, 1694, 1716, 1734, 1750, 1776, 1803, 1829, 1852, 1871, 1895, 1930, 1960, 1982, 2002, 2011, 2011, 2006, 2006, 2010, 2002, 1981, 1961, 1950, 1937, 1924, 1913, 1899, 1874, 1845, 1821, 1800, 1783, 1770, 1758, 1757, 1762, 1770, 1783, 1801, 1806, 1808, 1820, 1834, 1839, 1850, 1864, 1876, 1876, 1877, 1889, 1897, 1894, 1893, 1900, 1899, 1895, 1890, 1886, 1884, 1873, 1852, 1846, 1858, 1862, 1867, 1885, 1912, 1933, 1944, 1962, 1986, 2008, 2016, 2030, 2048, 2061, 2057, 2051, 2042, 2029, 2001, 1964, 1925, 1884, 1844, 1820, 1811, 1806, 1802, 1798, 1801, 1810, 1813, 1813, 1816, 1812, 1801, 1799, 1808, 1815, 1803, 1786, 1777, 1775, 1765, 1819, 2005, 2360, 2908, 3503, 3836, 3831, 3581, 3140, 2655, 2330, 2152, 2022, 1880, 1741, 1643, 1602, 1583, 1569, 1561, 1562, 1570, 1570, 1571, 1586, 1614, 1639, 1660, 1681, 1694, 1697, 1700, 1723, 1751, 1772, 1792, 1825, 1859, 1884, 1898, 1913, 1930, 1950, 1970, 1996, 2008, 1995, 1980, 1984, 1991, 1999, 2006, 2003, 1984, 1955, 1930, 1893, 1873, 1842, 1810, 1782, 1757, 1735, 1739, 1762, 1787, 1799, 1802, 1814, 1827, 1838, 1852, 1877, 1893, 1901, 1906, 1918, 1929, 1928, 1919, 1918, 1914, 1902, 1893, 1897, 1900, 1896, 1889, 1889, 1889, 1876, 1871, 1884, 1906, 1922, 1941, 1966, 1998, 2017, 2023, 2029, 2041, 2049, 2053, 2067, 2072, 2070, 2056, 2037, 2020, 2002, 1963, 1922, 1887, 1855, 1834, 1831, 1828, 1813, 1796, 1790, 1790, 1793, 1795, 1796, 1794, 1781, 1768, 1769, 1780, 1787, 1791, 1798, 1803, 1797, 1827, 2002, 2357, 2906, 3517, 3883, 3897, 3662, 3245, 2764, 2430, 2241, 2085, 1918, 1764, 1661, 1619, 1616, 1613, 1600, 1587, 1589, 1595, 1609, 1624, 1642, 1667, 1691, 1709, 1733, 1763, 1778, 1778, 1783, 1797, 1803, 1812, 1836, 1862, 1887, 1912, 1937, 1965, 1990, 2001, 2014, 2032, 2038, 2030, 2020, 2016, 2004, 1984, 1971, 1964, 1947, 1918, 1890, 1874, 1860, 1845, 1840, 1839, 1823, 1801, 1797, 1803, 1815, 1832, 1862, 1882, 1898, 1909, 1923, 1932, 1940, 1943, 1946, 1949, 1948, 1942, 1941, 1946, 1947, 1936, 1925, 1919, 1913, 1904, 1911, 1924, 1934, 1934, 1936, 1943, 1960, 1975, 1997, 2020, 2026, 2014, 2015, 2031, 2054, 2073, 2095, 2113, 2104, 2073, 2041, 2006, 1957, 1908, 1873, 1859, 1856, 1843, 1828, 1824, 1813, 1794, 1790, 1798, 1809, 1814, 1816, 1812, 1811, 1806, 1801, 1810, 1833, 1841, 1829, 1820, 1852, 1989, 2298, 2838, 3500, 3961, 4061, 3880, 3471, 2925, 2479, 2225, 2067, 1909, 1756, 1653, 1605, 1574, 1551, 1549, 1563, 1571, 1574, 1586, 1599, 1609, 1624, 1646, 1664, 1672, 1672, 1688, 1713, 1739, 1760, 1784, 1800, 1811, 1824, 1846, 1878, 1901, 1916, 1937, 1961, 1970, 1969, 1968, 1961, 1944, 1926, 1921, 1917, 1907, 1888, 1866, 1852, 1844, 1830, 1822, 1814, 1799, 1779, 1770, 1768, 1772, 1779, 1792, 1811, 1829, 1836, 1846, 1860, 1873, 1878, 1891, 1904, 1910, 1904, 1901, 1906, 1916, 1917, 1914, 1913, 1908, 1890, 1877, 1880, 1892, 1890, 1887, 1886, 1883, 1870, 1862, 1864, 1881, 1898, 1918, 1933, 1957, 1970, 1971, 1967, 1981, 2000, 2023, 2052, 2080, 2094, 2088, 2065, 2030, 1985, 1931, 1874, 1839, 1827, 1821, 1825, 1836, 1837, 1833, 1834, 1845, 1854, 1851, 1851, 1857, 1855, 1851, 1859, 1861, 1855, 1845, 1843, 1838, 1823, 1821, 1901, 2114, 2516, 3118, 3711, 4012, 3990, 3714, 3232, 2724, 2365, 2137, 1960, 1806, 1673, 1596, 1575, 1569, 1551, 1539, 1547, 1558, 1567, 1579, 1606, 1628, 1636, 1645, 1667, 1684, 1697, 1712, 1734, 1747, 1750, 1758, 1777, 1803, 1820, 1833, 1854, 1880, 1896, 1912, 1937, 1960, 1966, 1965, 1966, 1968, 1957, 1946, 1940, 1935, 1924, 1904, 1885, 1869, 1844, 1808, 1784, 1772, 1762, 1754, 1759, 1765, 1770, 1782, 1800, 1828, 1853, 1869, 1876, 1880, 1881, 1877, 1878, 1891, 1901, 1895, 1896, 1905, 1905, 1897, 1900, 1905, 1901, 1889, 1885, 1886, 1882, 1869, 1869, 1876, 1871, 1859, 1857, 1856, 1850, 1848, 1861, 1884, 1906, 1929, 1953, 1971, 1983, 1985, 1982, 1993, 2018, 2037, 2051, 2070, 2081, 2075, 2057, 2042, 2013, 1970, 1917, 1883, 1870, 1862, 1852, 1855, 1863, 1857, 1847, 1851, 1855, 1840, 1822, 1821, 1833, 1834, 1837, 1843, 1851, 1845, 1838, 1828, 1830, 1893, 2092, 2492, 3088, 3643, 3898, 3853, 3584, 3117, 2638, 2332, 2161, 2002, 1839, 1716, 1650, 1609, 1578, 1569, 1567, 1566, 1570, 1585, 1599, 1602, 1604, 1615, 1633, 1647, 1663, 1685, 1712, 1735, 1757, 1784, 1817, 1841, 1858, 1874, 1893, 1908, 1923, 1939, 1957, 1970, 1983, 2001, 2020, 2024, 2025, 2019, 2007, 1989, 1964, 1937, 1914, 1884, 1860, 1844, 1832, 1809, 1785, 1766, 1761, 1762, 1774, 1795, 1819, 1840, 1850, 1859, 1864, 1862, 1866, 1879, 1889, 1893, 1890, 1878, 1862, 1854, 1849, 1853, 1862, 1876, 1870, 1863, 1854, 1846, 1834, 1837, 1852, 1857, 1845, 1838, 1842, 1838, 1835, 1844, 1857, 1867, 1883, 1916, 1954, 1985, 1996, 2001, 2004, 2008, 2015, 2040, 2064, 2074, 2072, 2065, 2051, 2027, 1994, 1962, 1934, 1907, 1882, 1861, 1853, 1848, 1837, 1830, 1835, 1839, 1839, 1836, 1834, 1833, 1832, 1828, 1837, 1846, 1842, 1824, 1822, 1824, 1820, 1825, 1926, 2176, 2606, 3194, 3698, 3872, 3739, 3414, 2956, 2549, 2305, 2151, 1988, 1810, 1659, 1585, 1578, 1581, 1576, 1574, 1578, 1577, 1587, 1616, 1654, 1683, 1689, 1689, 1695, 1711, 1728, 1746, 1768, 1783, 1789, 1797, 1826, 1858, 1886, 1912, 1948, 1978, 1991, 1995, 2003, 2011, 2010, 2011, 2010, 2007, 1999, 1991, 1990, 1992, 1978, 1947, 1913, 1879, 1850, 1828, 1813, 1807, 1801, 1785, 1783, 1795, 1810, 1820, 1840, 1859, 1869, 1867, 1872, 1883, 1889, 1886, 1887, 1901, 1901, 1896, 1890, 1896, 1906, 1908, 1916, 1926, 1923, 1900, 1880, 1873, 1871, 1868, 1875, 1890, 1892, 1885, 1878, 1876, 1873, 1868, 1875, 1893, 1915, 1935, 1962, 1982, 1999, 1997, 1984, 1982, 2001, 2022, 2050, 2079, 2086, 2069, 2046, 2025, 1999, 1959, 1913, 1872, 1846, 1832, 1835, 1852, 1861, 1853, 1851, 1851, 1852, 1847, 1842, 1836, 1834, 1826, 1826, 1834, 1835, 1830, 1834, 1835, 1823, 1844, 1991, 2313, 2841, 3472, 3906, 3991, 3801, 3403, 2900, 2515, 2289, 2121, 1954, 1800, 1687, 1630, 1611, 1601, 1593, 1580, 1578, 1592, 1611, 1623, 1638, 1662, 1682, 1697, 1711, 1729, 1743, 1748, 1755, 1773, 1795, 1807, 1818, 1835, 1863, 1887, 1912, 1950, 1985, 2001, 2011, 2028, 2033, 2023, 2006, 2001, 1999, 1979, 1955, 1944, 1931, 1910, 1892, 1877, 1856, 1827, 1805, 1790, 1786, 1782, 1781, 1784, 1803, 1824, 1841, 1865, 1888, 1893, 1891, 1912, 1927, 1930, 1920, 1909, 1892, 1881, 1875, 1881, 1894, 1901, 1908, 1916, 1925, 1927, 1918, 1903, 1899, 1901, 1902, 1902, 1904, 1896, 1886, 1886, 1899, 1915, 1923, 1933, 1951, 1968, 1982, 2006, 2021, 2021, 2024, 2034, 2043, 2055, 2068, 2079, 2082, 2059, 2014, 1967, 1921, 1878, 1849, 1846, 1850, 1842, 1833, 1834, 1836, 1836, 1827, 1820, 1822, 1822, 1822, 1830, 1843, 1849, 1848, 1845, 1844, 1844, 1826, 1814, 1900, 2127, 2534, 3137, 3729, 4010, 3956, 3662, 3174, 2667, 2323, 2121, 1957, 1806, 1672, 1593, 1568, 1560, 1542, 1537, 1549, 1560, 1559, 1564, 1579, 1596, 1605, 1621, 1645, 1664, 1674, 1689, 1708, 1733, 1750, 1770, 1795, 1815, 1827, 1843, 1860, 1880, 1902, 1917, 1936, 1960, 1969, 1970, 1975, 1977, 1964, 1957, 1957, 1955, 1939, 1918, 1896, 1876, 1851, 1827, 1815, 1809, 1802, 1799, 1799, 1801, 1802, 1811, 1838, 1864, 1878, 1887, 1900, 1906, 1907, 1912, 1921, 1921, 1918, 1912, 1911, 1907, 1907, 1903, 1907, 1915, 1914, 1900, 1885, 1880, 1869, 1866, 1875, 1893, 1894, 1887, 1881, 1882, 1882, 1882, 1896, 1919, 1938, 1953, 1971, 1986, 1982, 1969, 1972, 1995, 2021, 2043, 2063, 2077, 2078, 2057, 2037, 2018, 1985, 1942, 1914, 1898, 1889, 1883, 1889, 1898, 1906, 1896, 1887, 1877, 1869, 1864, 1875, 1886, 1892, 1886, 1879, 1878, 1883, 1882, 1881, 1875, 1908, 2042, 2339, 2856, 3477, 3892, 3982, 3812, 3422, 2911, 2501, 2254, 2085, 1928, 1781, 1680, 1636, 1612, 1586, 1581, 1591, 1597, 1601, 1609, 1613, 1614, 1623, 1648, 1674, 1683, 1696, 1717, 1719, 1717, 1724, 1740, 1766, 1800, 1836, 1871, 1898, 1919, 1941, 1966, 1994, 2011, 2020, 2023, 2023, 2013, 2002, 1991, 1972, 1950, 1929, 1911, 1895, 1875, 1842, 1820, 1805, 1783, 1764, 1761, 1764, 1759, 1763, 1780, 1803, 1809, 1818, 1837, 1862, 1876, 1886, 1896, 1901, 1896, 1889, 1891, 1895, 1900, 1899, 1894, 1889, 1883, 1871, 1873, 1882, 1884, 1878, 1877, 1880, 1876, 1865, 1859, 1858, 1853, 1847, 1859, 1887, 1909, 1920, 1940, 1966, 1985, 1989, 1987, 1999, 2022, 2034, 2050, 2082, 2100, 2086, 2063, 2047, 2021, 1977, 1932, 1907, 1891, 1871, 1861, 1867, 1872, 1866, 1875, 1889, 1895, 1892, 1887, 1883, 1885, 1886, 1889, 1900, 1910, 1905, 1893, 1885, 1872, 1859, 1939, 2189, 2634, 3238, 3758, 3967, 3874, 3544, 3049, 2600, 2317, 2133, 1980, 1832, 1710, 1639, 1612, 1596, 1581, 1571, 1573, 1584, 1589, 1599, 1623, 1653, 1679, 1692, 1705, 1710, 1715, 1720, 1742, 1774, 1810, 1829, 1841, 1861, 1884, 1895, 1918, 1962, 1997, 2008, 2019, 2026, 2021, 2008, 2001, 1998, 1995, 1985, 1976, 1972, 1961, 1931, 1896, 1853, 1807, 1772, 1758, 1766, 1774, 1770, 1761, 1756, 1754, 1759, 1780, 1811, 1837, 1840, 1834, 1824, 1819, 1813, 1811, 1817, 1826, 1829, 1831, 1836, 1841, 1836, 1833, 1834, 1836, 1836, 1844, 1858, 1866, 1864, 1852, 1858, 1861, 1862, 1870, 1892, 1905, 1912, 1919, 1940, 1962, 1977, 1985, 2003, 2033, 2053, 2060, 2074, 2082, 2062, 2032, 2012, 1987, 1952, 1914, 1881, 1873, 1869, 1861, 1855, 1862, 1854, 1833, 1823, 1836, 1841, 1835, 1834, 1840, 1836, 1830, 1830, 1832, 1836, 1838, 1836, 1838, 1899, 2091, 2467, 3041, 3577, 3813, 3742, 3463, 3008, 2559, 2291, 2154, 2024, 1866, 1737, 1673, 1642, 1614, 1606, 1618, 1625, 1628, 1643, 1659, 1657, 1654, 1668, 1702, 1727, 1742, 1761, 1779, 1787, 1794, 1817, 1842, 1861, 1876, 1899, 1930, 1962, 1991, 2013, 2032, 2037, 2043, 2058, 2070, 2065, 2049, 2024, 1999, 1988, 1979, 1960, 1944, 1922, 1884, 1856, 1851, 1844, 1819, 1795, 1775, 1761, 1750, 1758, 1777, 1802, 1816, 1834, 1859, 1881, 1887, 1894, 1906, 1910, 1912, 1916, 1926, 1930, 1934, 1930, 1928, 1913, 1891, 1868, 1866, 1868, 1872, 1870, 1867, 1863, 1863, 1861, 1872, 1895, 1914, 1930, 1951, 1969, 1981, 1991, 2002, 2019, 2039, 2050, 2058, 2075, 2077, 2057, 2029, 2002, 1960, 1916, 1876, 1849, 1827, 1805, 1795, 1806, 1816, 1808, 1804, 1811, 1810, 1793, 1783, 1780, 1772, 1763, 1774, 1796, 1801, 1798, 1797, 1799, 1820, 1951, 2251, 2751, 3371, 3819, 3919, 3754, 3384, 2880, 2479, 2264, 2117, 1948, 1776, 1655, 1589, 1561, 1559, 1572, 1576, 1575, 1579, 1590, 1597, 1607, 1631, 1658, 1676, 1694, 1715, 1735, 1755, 1766, 1773, 1788, 1802, 1809, 1836, 1871, 1899, 1922, 1951, 1979, 1996, 1999, 1996, 1997, 1989, 1982, 1985, 1985, 1976, 1963, 1946, 1924, 1904, 1875, 1850, 1825, 1804, 1784, 1775, 1764, 1757, 1761, 1773, 1786, 1807, 1829, 1849, 1868, 1884, 1898, 1906, 1910, 1912, 1904, 1898, 1902, 1905, 1906, 1908, 1912, 1914, 1909, 1905, 1904, 1904, 1895, 1887, 1894, 1900, 1901, 1906, 1920, 1935, 1952, 1967, 1985, 2000, 2011, 2019, 2037, 2062, 2074, 2069, 2053, 2031, 1990, 1948, 1913, 1885, 1853, 1828, 1814, 1807, 1801, 1794, 1792, 1799, 1797, 1787, 1785, 1790, 1785, 1778, 1779, 1793, 1799, 1804, 1816, 1828, 1817, 1819, 1932, 2217, 2713, 3359, 3870, 4033, 3884, 3499, 2970, 2521, 2247, 2078, 1918, 1762, 1646, 1590, 1572, 1569, 1567, 1560, 1556, 1562, 1571, 1586, 1605, 1627, 1636, 1650, 1667, 1684, 1699, 1717, 1734, 1756, 1780, 1796, 1818, 1840, 1857, 1873, 1904, 1936, 1954, 1964, 1974, 1976, 1966, 1961, 1963, 1965, 1970, 1966, 1955, 1946, 1933, 1909, 1880, 1857, 1835, 1811, 1795, 1791, 1791, 1786, 1783, 1794, 1809, 1818, 1826, 1845, 1862, 1875, 1887, 1906, 1917, 1905, 1898, 1903, 1901, 1890, 1888, 1891, 1884, 1875, 1877, 1882, 1881, 1875, 1878, 1881, 1887, 1890, 1899, 1915, 1933, 1952, 1971, 1987, 1991, 1998, 2008, 2030, 2059, 2080, 2092, 2092, 2075, 2036, 1993, 1945, 1900, 1860, 1838, 1824, 1816, 1808, 1800, 1792, 1796, 1799, 1802, 1810, 1815, 1811, 1804, 1802, 1803, 1807, 1812, 1822, 1833, 1833, 1817, 1830, 1938, 2189, 2642, 3262, 3767, 3941, 3821, 3485, 2993, 2544, 2258, 2084, 1930, 1773, 1650, 1597, 1587, 1586, 1579, 1572, 1573, 1573, 1571, 1587, 1612, 1632, 1647, 1667, 1679, 1694, 1714, 1734, 1747, 1766, 1781, 1795, 1818, 1839, 1859, 1888, 1923, 1951, 1977, 2002, 2017, 2011, 1994, 1990, 1994, 1992, 1992, 1992, 1986, 1966, 1936, 1914, 1896, 1874, 1854, 1853, 1848, 1839, 1825, 1812, 1795, 1787, 1790, 1810, 1834, 1855, 1871, 1887, 1905, 1921, 1936, 1955, 1973, 1971, 1955, 1949, 1946, 1936, 1928, 1926, 1928, 1923, 1913, 1910, 1917, 1909, 1900, 1901, 1902, 1902, 1911, 1928, 1953, 1979, 1998, 2020, 2034, 2032, 2021, 2017, 2024, 2035, 2047, 2063, 2085, 2083, 2065, 2044, 2023, 1987, 1944, 1910, 1897, 1891, 1881, 1887, 1899, 1904, 1898, 1903, 1918, 1927, 1920, 1914, 1911, 1908, 1907, 1923, 1946, 1953, 1941, 1927, 1918, 1945, 2081, 2385, 2901, 3512, 3914, 3980, 3786, 3380, 2867, 2479, 2269, 2129, 1985, 1840, 1740, 1690, 1666, 1654, 1658, 1667, 1682, 1702, 1723, 1738, 1743, 1748, 1757, 1762, 1767, 1781, 1802, 1826, 1845, 1862, 1881, 1907, 1925, 1936, 1950, 1969, 1985, 2011, 2056, 2096, 2109, 2110, 2115, 2120, 2117, 2112, 2111, 2097, 2074, 2055, 2045, 2020, 1986, 1954, 1930, 1914, 1900, 1881, 1867, 1866, 1872, 1884, 1902, 1912, 1917, 1923, 1936, 1953, 1967, 1974, 1979, 1987, 1997, 2003, 2013, 2031, 2042, 2032, 2014, 1999, 1988, 1974, 1969, 1985, 1993, 1979, 1969, 1973, 1968, 1948, 1930, 1929, 1939, 1951, 1982, 2022, 2040, 2038, 2037, 2051, 2073, 2093, 2122, 2150, 2161, 2150, 2146, 2132, 2099, 2052, 2009, 1968, 1926, 1896, 1885, 1882, 1880, 1877, 1878, 1883, 1885, 1878, 1874, 1877, 1883, 1883, 1891, 1916, 1929, 1917, 1902, 1900, 1885, 1875, 1969, 2236, 2693, 3303, 3804, 3964, 3812, 3456, 2967, 2552, 2324, 2192, 2046, 1878, 1738, 1662, 1633, 1621, 1607, 1597, 1599, 1608, 1613, 1618, 1632, 1650, 1668, 1685, 1713, 1735, 1743, 1745, 1759, 1782, 1808, 1837, 1871, 1906, 1932, 1949, 1965, 1990, 2009, 2022, 2026, 2037, 2043, 2037, 2022, 2024, 2026, 2015, 2004, 2002, 1985, 1957, 1931, 1910, 1886, 1870, 1851, 1837, 1826, 1820, 1816, 1830, 1850, 1863, 1881, 1895, 1901, 1897, 1909, 1922, 1934, 1938, 1949, 1958, 1956, 1949, 1942, 1932, 1921, 1908, 1900, 1898, 1887, 1864, 1848, 1848, 1851, 1849, 1855, 1862, 1863, 1861, 1871, 1892, 1921, 1950, 1975, 1989, 1996, 2001, 2008, 2024, 2053, 2074, 2081, 2078, 2062, 2031, 1996, 1959, 1924, 1883, 1844, 1822, 1812, 1796, 1787, 1791, 1787, 1776, 1776, 1781, 1784, 1785, 1787, 1789, 1791, 1791, 1793, 1798, 1802, 1792, 1769, 1771, 1879, 2146, 2635, 3289, 3806, 3967, 3831, 3474, 2958, 2508, 2237, 2064, 1903, 1745, 1624, 1569, 1553, 1533, 1510, 1500, 1508, 1520, 1532, 1559, 1588, 1608, 1623, 1642, 1663, 1679, 1691, 1703, 1719, 1727, 1733, 1748, 1769, 1786, 1810, 1840, 1873, 1899, 1921, 1940, 1960, 1963, 1964, 1966, 1968, 1955, 1940, 1925, 1922, 1917, 1904, 1885, 1864, 1835, 1800, 1782, 1775, 1766, 1757, 1761, 1772, 1789, 1802, 1820, 1827, 1831, 1832, 1844, 1859, 1860, 1845, 1846, 1855, 1858, 1867, 1883, 1892, 1884, 1870, 1857, 1857, 1860, 1864, 1874, 1883, 1886, 1876, 1870, 1870, 1878, 1878, 1877, 1889, 1909, 1922, 1940, 1963, 1971, 1965, 1969, 1989, 2014, 2032, 2052, 2060, 2047, 2017, 1982, 1945, 1907, 1870, 1846, 1841, 1837, 1835, 1832, 1830, 1826, 1817, 1810, 1816, 1825, 1826, 1828, 1839, 1843, 1841, 1849, 1859, 1856, 1838, 1818, 1799, 1850, 2024, 2377, 2944, 3562, 3916, 3945, 3731, 3299, 2777, 2392, 2171, 2007, 1846, 1709, 1631, 1604, 1590, 1578, 1581, 1592, 1597, 1600, 1618, 1639, 1649, 1664, 1691, 1718, 1722, 1713, 1721, 1741, 1763, 1788, 1826, 1859, 1874, 1875, 1892, 1922, 1951, 1971, 1996, 2024, 2035, 2026, 2015, 2006, 1996, 1979, 1976, 1978, 1968, 1942, 1924, 1908, 1882, 1848, 1824, 1810, 1792, 1776, 1775, 1779, 1773, 1764, 1770, 1784, 1796, 1807, 1829, 1852, 1861, 1859, 1865, 1875, 1875, 1878, 1890, 1894, 1894, 1886, 1877, 1873, 1870, 1861, 1857, 1862, 1866, 1860, 1862, 1877, 1882, 1865, 1850, 1855, 1863, 1874, 1903, 1940, 1963, 1962, 1958, 1966, 1984, 1995, 2011, 2033, 2047, 2040, 2011, 1979, 1947, 1906, 1869, 1856, 1848, 1835, 1833, 1837, 1834, 1824, 1823, 1821, 1817, 1813, 1810, 1810, 1808, 1804, 1802, 1814, 1820, 1821, 1824, 1830, 1820, 1838, 1964, 2256, 2748, 3346, 3776, 3880, 3709, 3321, 2821, 2424, 2190, 2024, 1873, 1736, 1638, 1586, 1562, 1546, 1527, 1506, 1515, 1547, 1577, 1597, 1610, 1612, 1617, 1626, 1640, 1658, 1686, 1706, 1720, 1737, 1764, 1786, 1808, 1832, 1863, 1882, 1898, 1913, 1941, 1966, 1981, 1978, 1961, 1934, 1909, 1906, 1917, 1919, 1907, 1888, 1869, 1847, 1825, 1805, 1783, 1757, 1735, 1729, 1730, 1726, 1728, 1735, 1750, 1769, 1788, 1807, 1825, 1838, 1841, 1846, 1855, 1860, 1865, 1877, 1899, 1913, 1914, 1901, 1890, 1881, 1871, 1872, 1882, 1883, 1873, 1871, 1875, 1868, 1862, 1866, 1872, 1865, 1856, 1859, 1873, 1881, 1896, 1933, 1967, 1988, 1997, 2000, 2004, 2024, 2041, 2062, 2086, 2097, 2093, 2085, 2069, 2039, 1999, 1944, 1888, 1844, 1811, 1805, 1800, 1800, 1795, 1791, 1779, 1783, 1788, 1801, 1821, 1830, 1826, 1820, 1822, 1828, 1831, 1827, 1822, 1817, 1809, 1852, 2039, 2414, 2975, 3541, 3843, 3817, 3562, 3125, 2664, 2369, 2201, 2049, 1880, 1731, 1640, 1603, 1595, 1589, 1581, 1573, 1572, 1570, 1577, 1592, 1609, 1627, 1651, 1680, 1701, 1719, 1733, 1746, 1756, 1771, 1790, 1815, 1847, 1876, 1898, 1917, 1939, 1962, 1977, 1993, 2011, 2021, 2011, 1990, 1970, 1956, 1945, 1948, 1955, 1958, 1943, 1925, 1911, 1894, 1870, 1849, 1836, 1826, 1817, 1814, 1817, 1817, 1816, 1824, 1844, 1862, 1882, 1896, 1908, 1914, 1916, 1919, 1934, 1948, 1951, 1954, 1957, 1956, 1948, 1940, 1927, 1917, 1905, 1901, 1902, 1905, 1900, 1893, 1884, 1878, 1881, 1883, 1887, 1894, 1907, 1927, 1955, 1982, 2001, 2003, 1995, 1991, 1994, 2000, 2019, 2043, 2053, 2044, 2032, 2010, 1982, 1949, 1917, 1896, 1883, 1871, 1871, 1880, 1880, 1877, 1869, 1858, 1850, 1846, 1836, 1833, 1840, 1842, 1839, 1845, 1852, 1855, 1858, 1862, 1857, 1872, 1988, 2260, 2737, 3353, 3832, 3976, 3829, 3457, 2949, 2524, 2275, 2114, 1961, 1814, 1701, 1632, 1607, 1602, 1599, 1585, 1585, 1596, 1603, 1610, 1621, 1630, 1640, 1647, 1655, 1673, 1695, 1709, 1721, 1741, 1760, 1775, 1797, 1825, 1850, 1871, 1897, 1919, 1941, 1960, 1972, 1984, 1992, 1986, 1976, 1970, 1967, 1953, 1946, 1940, 1933, 1915, 1891, 1863, 1830, 1797, 1775, 1766, 1763, 1766, 1764, 1768, 1784, 1801, 1821, 1852, 1887, 1904, 1912, 1920, 1920, 1904, 1897, 1905, 1909, 1910, 1918, 1928, 1930, 1928, 1920, 1911, 1908, 1898, 1885, 1885, 1894, 1892, 1886, 1888, 1879, 1860, 1843, 1849, 1864, 1878, 1886, 1901, 1920, 1935, 1954, 1982, 2002, 1999, 1994, 2006, 2030, 2051, 2066, 2078, 2076, 2052, 2025, 2004, 1983, 1952, 1926, 1911, 1899, 1882, 1868, 1860, 1860, 1859, 1858, 1864, 1867, 1858, 1856, 1867, 1875, 1877, 1880, 1885, 1883, 1874, 1858, 1850, 1889, 2050, 2385, 2934, 3550, 3927, 3963, 3742, 3312, 2793, 2401, 2181, 2027, 1876, 1729, 1638, 1598, 1580, 1554, 1545, 1551, 1555, 1555, 1568, 1581, 1586, 1598, 1627, 1659, 1684, 1704, 1726, 1743, 1755, 1764, 1782, 1810, 1832, 1854, 1886, 1919, 1942, 1958, 1981, 2006, 2021, 2022, 2021, 2013, 1997, 1975, 1954, 1942, 1933, 1917, 1900, 1897, 1889, 1868, 1845, 1820, 1792, 1771, 1763, 1764, 1771, 1776, 1786, 1811, 1840, 1855, 1864, 1873, 1866, 1852, 1858, 1879, 1881, 1863, 1848, 1840, 1834, 1829, 1835, 1848, 1856, 1853, 1848, 1851, 1850, 1838, 1832, 1840, 1849, 1851, 1854, 1862, 1860, 1845, 1841, 1854, 1873, 1896, 1931, 1971, 1989, 1977, 1970, 1986, 2007, 2026, 2048, 2071, 2079, 2063, 2034, 2016, 1989, 1939, 1891, 1872, 1860, 1843, 1835, 1833, 1832, 1822, 1805, 1799, 1796, 1788, 1798, 1823, 1835, 1839, 1849, 1851, 1848, 1848, 1846, 1838, 1842, 1933, 2172, 2611, 3213, 3702, 3854, 3730, 3402, 2915, 2488, 2250, 2105, 1954, 1796, 1676, 1620, 1602, 1592, 1587, 1591, 1598, 1609, 1625, 1643, 1650, 1655, 1669, 1690, 1700, 1711, 1735, 1744, 1735, 1744, 1767, 1787, 1804, 1832, 1864, 1895, 1922, 1952, 1980, 1999, 2003, 2002, 2006, 2010, 2004, 1987, 1971, 1965, 1962, 1947, 1922, 1893, 1852, 1814, 1803, 1805, 1795, 1781, 1771, 1753, 1739, 1741, 1756, 1774, 1784, 1794, 1812, 1833, 1852, 1871, 1887, 1886, 1878, 1864, 1866, 1879, 1891, 1892, 1894, 1892, 1886, 1877, 1868, 1866, 1863, 1862, 1865, 1874, 1888, 1892, 1890, 1894, 1903, 1911, 1929, 1961, 1990, 2007, 2033, 2065, 2088, 2100, 2114, 2120, 2114, 2094, 2066, 2030, 1989, 1937, 1886, 1856, 1832, 1804, 1790, 1793, 1798, 1799, 1805, 1812, 1809, 1804, 1806, 1813, 1808, 1795, 1794, 1805, 1809, 1800, 1799, 1807, 1819, 1891, 2119, 2541, 3139, 3685, 3919, 3840, 3550, 3081, 2615, 2334, 2180, 2026, 1855, 1718, 1637, 1600, 1589, 1587, 1581, 1573, 1575, 1591, 1611, 1628, 1657, 1688, 1703, 1709, 1723, 1743, 1766, 1780, 1796, 1820, 1841, 1849, 1866, 1894, 1916, 1936, 1964, 1995, 2016, 2027, 2034, 2042, 2042, 2033, 2022, 2014, 2002, 1993, 1982, 1969, 1956, 1936, 1902, 1875, 1852, 1823, 1798, 1788, 1786, 1785, 1788, 1805, 1837, 1865, 1893, 1923, 1949, 1954, 1948, 1948, 1950, 1946, 1952, 1968, 1972, 1959, 1944, 1933, 1928, 1927, 1929, 1930, 1926, 1917, 1910, 1914, 1917, 1908, 1896, 1899, 1916, 1929, 1950, 1981, 2001, 2000, 2006, 2025, 2047, 2066, 2084, 2107, 2120, 2108, 2077, 2046, 2012, 1967, 1921, 1892, 1872, 1846, 1818, 1805, 1802, 1800, 1797, 1804, 1810, 1805, 1801, 1810, 1820, 1819, 1813, 1815, 1817, 1812, 1814, 1819, 1815, 1873, 2065, 2444, 3032, 3636, 3948, 3921, 3652, 3179, 2664, 2318, 2136, 1995, 1836, 1699, 1621, 1585, 1562, 1558, 1559, 1558, 1552, 1563, 1584, 1606, 1622, 1640, 1653, 1667, 1682, 1708, 1736, 1762, 1776, 1790, 1813, 1834, 1847, 1866, 1888, 1899, 1917, 1952, 1979, 1996, 2004, 2004, 1999, 1995, 1986, 1969, 1960, 1941, 1921, 1916, 1921, 1905, 1881, 1859, 1830, 1807, 1798, 1802, 1808, 1812, 1803, 1796, 1803, 1824, 1843, 1866, 1893, 1912, 1914, 1923, 1937, 1942, 1932, 1924, 1926, 1929, 1932, 1937, 1944, 1938, 1926, 1916, 1917, 1913, 1901, 1892, 1893, 1893, 1892, 1902, 1923, 1942, 1961, 1979, 1997, 2004, 2008, 2018, 2043, 2071, 2092, 2106, 2111, 2100, 2071, 2036, 1998, 1954, 1902, 1854, 1829, 1819, 1805, 1793, 1794, 1804, 1804, 1802, 1812, 1817, 1816, 1821, 1840, 1856, 1860, 1852, 1843, 1834, 1822, 1807, 1805, 1857, 2017, 2343, 2892, 3513, 3893, 3939, 3737, 3319, 2808, 2419, 2198, 2039, 1877, 1730, 1640, 1604, 1588, 1573, 1565, 1566, 1566, 1578, 1602, 1617, 1625, 1635, 1645, 1660, 1686, 1713, 1740, 1759, 1770, 1774, 1780, 1792, 1816, 1841, 1871, 1907, 1934, 1946, 1957, 1975, 1984, 1986, 1990, 1990, 1984, 1978, 1974, 1970, 1956, 1924, 1893, 1879, 1868, 1848, 1837, 1831, 1814, 1794, 1789, 1787, 1782, 1778, 1793, 1814, 1834, 1846, 1856, 1860, 1867, 1869, 1871, 1877, 1883, 1877, 1878, 1892, 1904, 1898, 1892, 1892, 1886, 1874, 1882, 1901, 1907, 1883, 1861, 1844, 1835, 1842, 1872, 1912, 1942, 1948, 1951, 1963, 1978, 1990, 2014, 2038, 2057, 2063, 2061, 2047, 2025, 1984, 1938, 1889, 1845, 1809, 1792, 1793, 1802, 1808, 1812, 1816, 1816, 1806, 1802, 1807, 1811, 1801, 1798, 1803, 1814, 1817, 1826, 1842, 1855, 1842, 1825, 1898, 2131, 2547, 3136, 3678, 3902, 3797, 3478, 3012, 2570, 2285, 2118, 1978, 1827, 1691, 1623, 1607, 1591, 1566, 1560, 1573, 1591, 1611, 1628, 1640, 1647, 1657, 1664, 1680, 1707, 1720, 1726, 1739, 1756, 1762, 1768, 1788, 1813, 1830, 1855, 1895, 1929, 1950, 1974, 1999, 2010, 2009, 2002, 2000, 1994, 1984, 1975, 1973, 1957, 1932, 1915, 1893, 1869, 1841, 1819, 1795, 1783, 1780, 1788, 1798, 1802, 1800, 1796, 1799, 1813, 1833, 1856, 1882, 1899, 1899, 1894, 1898, 1917, 1926, 1927, 1930, 1928, 1906, 1889, 1890, 1903, 1913, 1916, 1922, 1922, 1907, 1888, 1877, 1877, 1888, 1907, 1927, 1941, 1953, 1960, 1973, 1999, 2037, 2070, 2097, 2112, 2119, 2121, 2126, 2116, 2092, 2058, 2023, 1978, 1936, 1904, 1879, 1857, 1838, 1827, 1830, 1832, 1825, 1812, 1814, 1812, 1809, 1802, 1807, 1812, 1820, 1833, 1850, 1856, 1857, 1844, 1831, 1889, 2091, 2463, 3032, 3636, 3965, 3941, 3680, 3224, 2707, 2340, 2146, 2007, 1856, 1716, 1627, 1591, 1569, 1554, 1552, 1555, 1556, 1556, 1568, 1588, 1607, 1613, 1621, 1638, 1659, 1681, 1696, 1721, 1743, 1759, 1780, 1822, 1856, 1871, 1875, 1890, 1906, 1921, 1942, 1976, 2003, 2010, 2005, 2008, 2016, 2015, 2010, 2009, 2000, 1978, 1952, 1935, 1924, 1905, 1887, 1868, 1842, 1816, 1810, 1816, 1827, 1835, 1840, 1848, 1861, 1877, 1897, 1922, 1935, 1935, 1931, 1940, 1953, 1953, 1944, 1941, 1939, 1928, 1920, 1920, 1921, 1908, 1896, 1890, 1888, 1883, 1882, 1894, 1914, 1932, 1946, 1966, 1978, 1984, 1998, 2024, 2051, 2069, 2081, 2091, 2093, 2077, 2045, 2011, 1971, 1916, 1867, 1840, 1826, 1812, 1804, 1801, 1804, 1804, 1796, 1794, 1802, 1806, 1803, 1812, 1822, 1828, 1822, 1811, 1799, 1787, 1764, 1746, 1752, 1842, 2063, 2470, 3071, 3632, 3874, 3811, 3520, 3041, 2561, 2259, 2080, 1930, 1780, 1662, 1602, 1589, 1588, 1582, 1571, 1558, 1545, 1548, 1572, 1601, 1625, 1647, 1664, 1673, 1678, 1696, 1718, 1739, 1761, 1787, 1815, 1843, 1864, 1879, 1901, 1928, 1954, 1986, 2021, 2040, 2037, 2027, 2022, 2015, 1994, 1983, 1986, 1981, 1968, 1954, 1941, 1918, 1888, 1861, 1840, 1813, 1789, 1786, 1798, 1810, 1809, 1811, 1818, 1824, 1839, 1862, 1888, 1901, 1905, 1907, 1910, 1913, 1911, 1907, 1901, 1899, 1903, 1900, 1891, 1887, 1881, 1864, 1854, 1860, 1864, 1866, 1874, 1885, 1894, 1906, 1921, 1939, 1956, 1971, 1977, 1984, 1985, 1993, 2016, 2047, 2068, 2079, 2096, 2102, 2092, 2078, 2058, 2019, 1960, 1913, 1886, 1879, 1867, 1856, 1849, 1842, 1827, 1819, 1830, 1843, 1849, 1842, 1838, 1841, 1848, 1839, 1837, 1848, 1854, 1845, 1845, 1857, 1915, 2081, 2430, 2991, 3563, 3847, 3810, 3548, 3095, 2608, 2292, 2121, 1977, 1829, 1703, 1636, 1620, 1616, 1595, 1577, 1571, 1571, 1585, 1622, 1654, 1666, 1678, 1695, 1702, 1709, 1731, 1761, 1779, 1786, 1797, 1809, 1814, 1824, 1855, 1895, 1927, 1954, 1980, 1991, 1988, 1992, 2004, 2010, 1998, 1985, 1976, 1965, 1963, 1972, 1972, 1949, 1909, 1859, 1829, 1818, 1817, 1817, 1822, 1815, 1802, 1794, 1799, 1811, 1825, 1836, 1847, 1864, 1868, 1863, 1861, 1868, 1873, 1869, 1867, 1884, 1896, 1885, 1874, 1878, 1878, 1873, 1878, 1892, 1897, 1888, 1881, 1886, 1884, 1875, 1873, 1878, 1887, 1913, 1942, 1957, 1967, 1979, 1983, 1992, 2013, 2035, 2052, 2077, 2106, 2127, 2132, 2116, 2079, 2026, 1970, 1920, 1875, 1847, 1834, 1827, 1813, 1814, 1829, 1829, 1817, 1808, 1804, 1797, 1797, 1806, 1823, 1832, 1831, 1826, 1821, 1822, 1822, 1822, 1839, 1953, 2220, 2682, 3287, 3771, 3902, 3727, 3363, 2883, 2477, 2247, 2115, 1979, 1816, 1674, 1603, 1593, 1593, 1589, 1589, 1598, 1601, 1590, 1588, 1612, 1639, 1659, 1682, 1700, 1708, 1709, 1711, 1727, 1749, 1763, 1781, 1807, 1831, 1846, 1869, 1902, 1936, 1963, 1985, 2003, 2008, 1996, 1981, 1978, 1983, 1970, 1959, 1959, 1955, 1926, 1909, 1895, 1869, 1832, 1810, 1810, 1814, 1798, 1781, 1775, 1765, 1756, 1768, 1804, 1839, 1855, 1860, 1873, 1884, 1889, 1899, 1914, 1921, 1920, 1919, 1931, 1948, 1951, 1938, 1926, 1908, 1887, 1885, 1900, 1918, 1932, 1942, 1950, 1962, 1968, 1977, 1994, 2019, 2047, 2074, 2100, 2129, 2147, 2148, 2146, 2136, 2108, 2071, 2036, 1991, 1937, 1884, 1843, 1821, 1813, 1802, 1801, 1810, 1810, 1803, 1808, 1817, 1812, 1804, 1805, 1808, 1810, 1807, 1810, 1810, 1799, 1789, 1781, 1802, 1933, 2237, 2754, 3415, 3908, 4034, 3869, 3491, 2975, 2537, 2283, 2124, 1968, 1801, 1676, 1623, 1604, 1575, 1557, 1560, 1568, 1573, 1586, 1612, 1641, 1656, 1669, 1689, 1700, 1702, 1717, 1748, 1776, 1788, 1796, 1810, 1817, 1822, 1843, 1878, 1905, 1929, 1953, 1971, 1975, 1970, 1977, 1985, 1992, 1991, 1988, 1974, 1963, 1949, 1931, 1917, 1898, 1871, 1850, 1838, 1830, 1822, 1820, 1816, 1821, 1823, 1831, 1847, 1864, 1878, 1894, 1913, 1926, 1932, 1938, 1948, 1951, 1938, 1927, 1920, 1917, 1911, 1911, 1916, 1914, 1905, 1898, 1904, 1913, 1922, 1932, 1947, 1960, 1966, 1977, 1990, 1995, 1998, 2017, 2042, 2066, 2083, 2088, 2080, 2058, 2025, 1997, 1971, 1933, 1891, 1859, 1836, 1819, 1806, 1798, 1794, 1790, 1782, 1777, 1779, 1785, 1783, 1781, 1786, 1789, 1790, 1792, 1806, 1816, 1821, 1810, 1804, 1865, 2056, 2430, 3026, 3656, 4005, 4012, 3762, 3289, 2754, 2378, 2165, 2007, 1858, 1724, 1635, 1581, 1548, 1521, 1510, 1512, 1518, 1527, 1541, 1555, 1568, 1592, 1622, 1654, 1667, 1670, 1680, 1699, 1709, 1724, 1746, 1773, 1789, 1801, 1824, 1863, 1897, 1917, 1936, 1955, 1956, 1941, 1935, 1936, 1931, 1921, 1917, 1912, 1896, 1870, 1856, 1850, 1835, 1814, 1798, 1784, 1770, 1758, 1760, 1778, 1795, 1799, 1812, 1838, 1860, 1874, 1892, 1901, 1900, 1895, 1907, 1928, 1942, 1939, 1937, 1939, 1934, 1923, 1922, 1927, 1921, 1908, 1903, 1906, 1906, 1898, 1904, 1916, 1922, 1917, 1923, 1933, 1946, 1954, 1965, 1979, 1988, 1982, 1985, 2005, 2026, 2047, 2070, 2093, 2098, 2076, 2036, 2001, 1966, 1923, 1884, 1857, 1835, 1813, 1808, 1817, 1826, 1820, 1813, 1810, 1808, 1809, 1824, 1843, 1857, 1855, 1845, 1839, 1837, 1837, 1838, 1842, 1843, 1888, 2051, 2389, 2939, 3553, 3933, 3991, 3787, 3354, 2827, 2431, 2194, 2024, 1876, 1751, 1666, 1615, 1589, 1576, 1571, 1570, 1570, 1585, 1605, 1615, 1624, 1648, 1665, 1670, 1679, 1701, 1731, 1749, 1754, 1771, 1794, 1804, 1815, 1843, 1869, 1879, 1889, 1922, 1962, 1985, 1994, 2003, 1997, 1978, 1962, 1969, 1980, 1982, 1969, 1949, 1924, 1895, 1862, 1843, 1838, 1823, 1797, 1778, 1774, 1769, 1773, 1786, 1803, 1816, 1827, 1847, 1872, 1896, 1908, 1919, 1924, 1926, 1921, 1920, 1919, 1911, 1894, 1891, 1894, 1888, 1880, 1885, 1891, 1877, 1853, 1849, 1851, 1841, 1836, 1844, 1862, 1881, 1902, 1918, 1938, 1954, 1959, 1957, 1962, 1969, 1971, 1979, 2002, 2022, 2025, 2022, 2015, 1992, 1962, 1930, 1895, 1860, 1831, 1817, 1822, 1828, 1829, 1838, 1853, 1859, 1851, 1846, 1844, 1835, 1832, 1841, 1860, 1864, 1859, 1849, 1843, 1829, 1819, 1846, 1984, 2272, 2757, 3360, 3791, 3894, 3730, 3356, 2863, 2466, 2231, 2070, 1916, 1768, 1659, 1612, 1608, 1600, 1576, 1566, 1570, 1577, 1588, 1613, 1643, 1665, 1677, 1691, 1706, 1713, 1708, 1714, 1732, 1755, 1774, 1797, 1816, 1834, 1850, 1872, 1903, 1937, 1962, 1982, 1995, 2001, 2003, 2005, 2009, 2010, 2005, 2000, 1989, 1969, 1945, 1921, 1896, 1863, 1828, 1805, 1793, 1782, 1780, 1786, 1801, 1819, 1827, 1825, 1832, 1849, 1860, 1871, 1891, 1905, 1894, 1885, 1894, 1899, 1893, 1892, 1900, 1901, 1893, 1886, 1885, 1887, 1879, 1874, 1876, 1877, 1868, 1864, 1859, 1851, 1831, 1813, 1813, 1839, 1872, 1897, 1917, 1939, 1946, 1942, 1948, 1977, 2005, 2026, 2054, 2084, 2085, 2062, 2036, 2009, 1963, 1914, 1887, 1876, 1862, 1857, 1864, 1861, 1845, 1844, 1855, 1864, 1865, 1869, 1870, 1866, 1854, 1847, 1854, 1857, 1854, 1857, 1864, 1859, 1867, 1970, 2228, 2681, 3291, 3779, 3923, 3782, 3443, 2957, 2538, 2306, 2167, 2008, 1836, 1705, 1640, 1601, 1571, 1551, 1549, 1552, 1567, 1597, 1621, 1626, 1630, 1635, 1643, 1652, 1665, 1690, 1727, 1751, 1771, 1798, 1814, 1817, 1835, 1867, 1897, 1919, 1943, 1963, 1975, 1982, 1998, 2001, 1988, 1969, 1951, 1940, 1947, 1953, 1953, 1948, 1923, 1884, 1855, 1840, 1827, 1811, 1801, 1788, 1778, 1763, 1762, 1775, 1795, 1804, 1820, 1847, 1871, 1880, 1892, 1910, 1923, 1917, 1911, 1918, 1926, 1917, 1913, 1921, 1922, 1902, 1880, 1873, 1868, 1856, 1856, 1865, 1867, 1860, 1856, 1867, 1898, 1923, 1948, 1978, 1996, 1988, 1994, 2016, 2033, 2037, 2052, 2068, 2073, 2058, 2044, 2030, 2000, 1945, 1890, 1849, 1823, 1806, 1800, 1809, 1817, 1808, 1795, 1799, 1809, 1810, 1812, 1817, 1827, 1831, 1836, 1844, 1852, 1841, 1834, 1828, 1814, 1858, 2045, 2415, 2990, 3591, 3912, 3900, 3654, 3212, 2718, 2385, 2196, 2035, 1870, 1736, 1654, 1620, 1603, 1591, 1580, 1574, 1570, 1579, 1596, 1617, 1632, 1657, 1689, 1713, 1721, 1741, 1767, 1784, 1787, 1804, 1827, 1837, 1850, 1875, 1912, 1939, 1964, 1989, 2010, 2020, 2026, 2029, 2028, 2020, 2005, 2000, 2003, 1993, 1975, 1964, 1945, 1913, 1884, 1871, 1861, 1843, 1823, 1812, 1809, 1797, 1787, 1796, 1825, 1846, 1856, 1868, 1882, 1889, 1889, 1900, 1917, 1927, 1917, 1912, 1914, 1918, 1914, 1910, 1912, 1913, 1906, 1905, 1912, 1920, 1916, 1909, 1905, 1903, 1896, 1898, 1912, 1927, 1937, 1958, 1985, 2008, 2014, 2015, 2020, 2036, 2048, 2072, 2097, 2105, 2093, 2077, 2062, 2038, 1999, 1958, 1922, 1887, 1862, 1867, 1873, 1868, 1862, 1865, 1866, 1862, 1857, 1859, 1863, 1863, 1864, 1874, 1883, 1887, 1885, 1883, 1879, 1866, 1867, 1956, 2201, 2649, 3267, 3794, 4001, 3900, 3563, 3054, 2583, 2281, 2094, 1933, 1784, 1663, 1598, 1578, 1569, 1560, 1552, 1554, 1567, 1585, 1599, 1617, 1639, 1654, 1662, 1677, 1693, 1709, 1719, 1737, 1757, 1774, 1781, 1792, 1806, 1823, 1848, 1877, 1914, 1947, 1962, 1968, 1976, 1976, 1967, 1965, 1971, 1965, 1945, 1932, 1927, 1910, 1890, 1872, 1861, 1843, 1819, 1802, 1794, 1788, 1778, 1769, 1765, 1765, 1767, 1776, 1802, 1831, 1845, 1848, 1853, 1854, 1856, 1865, 1877, 1889, 1897, 1901, 1906, 1908, 1902, 1893, 1891, 1893, 1897, 1896, 1889, 1883, 1881, 1878, 1877, 1883, 1885, 1879, 1876, 1884, 1905, 1932, 1956, 1972, 1984, 1987, 1983, 1983, 1999, 2018, 2039, 2061, 2068, 2071, 2068, 2060, 2044, 2014, 1971, 1932, 1893, 1852, 1836, 1845, 1850, 1848, 1854, 1863, 1856, 1843, 1839, 1834, 1826, 1826, 1833, 1834, 1836, 1833, 1836, 1834, 1825, 1827, 1914, 2136, 2542, 3134, 3699, 3963, 3906, 3618, 3151, 2682, 2370, 2182, 2028, 1879, 1742, 1654, 1612, 1592, 1572, 1558, 1562, 1580, 1591, 1597, 1617, 1645, 1664, 1675, 1698, 1721, 1736, 1743, 1755, 1776, 1790, 1794, 1809, 1833, 1855, 1876, 1910, 1949, 1982, 1996, 2007, 2014, 2017, 2012, 2015, 2022, 2016, 1987, 1959, 1938, 1920, 1899, 1886, 1875, 1853, 1816, 1782, 1767, 1762, 1761, 1765, 1784, 1803, 1815, 1825, 1850, 1871, 1882, 1892, 1908, 1914, 1909, 1912, 1915, 1917, 1919, 1917, 1909, 1908, 1904, 1889, 1879, 1875, 1866, 1860, 1864, 1877, 1881, 1874, 1860, 1854, 1847, 1848, 1860, 1881, 1896, 1911, 1933, 1958, 1964, 1963, 1970, 1989, 2004, 2023, 2040, 2052, 2032, 2002, 1973, 1935, 1888, 1845, 1813, 1785, 1768, 1767, 1774, 1776, 1776, 1778, 1782, 1787, 1789, 1795, 1802, 1810, 1812, 1822, 1830, 1828, 1813, 1811, 1822, 1841, 1933, 2183, 2622, 3212, 3706, 3878, 3748, 3414, 2937, 2517, 2279, 2135, 1983, 1820, 1696, 1623, 1591, 1587, 1586, 1578, 1581, 1591, 1603, 1612, 1624, 1639, 1664, 1682, 1692, 1709, 1738, 1764, 1779, 1788, 1804, 1812, 1823, 1842, 1877, 1905, 1928, 1946, 1968, 1981, 1990, 1999, 2005, 1998, 1983, 1964, 1960, 1959, 1959, 1965, 1970, 1947, 1909, 1876, 1857, 1839, 1819, 1804, 1794, 1784, 1774, 1777, 1794, 1820, 1836, 1855, 1878, 1897, 1900, 1905, 1925, 1945, 1945, 1948, 1953, 1954, 1943, 1944, 1951, 1947, 1927, 1920, 1924, 1926, 1923, 1929, 1935, 1930, 1909, 1895, 1894, 1894, 1884, 1885, 1905, 1928, 1946, 1974, 2015, 2039, 2029, 2017, 2024, 2038, 2042, 2055, 2074, 2070, 2042, 2016, 1994, 1959, 1913, 1880, 1869, 1867, 1862, 1866, 1872, 1868, 1852, 1838, 1836, 1838, 1831, 1826, 1832, 1842, 1845, 1852, 1874, 1892, 1884, 1869, 1863, 1854, 1910, 2118, 2518, 3109, 3692, 3986, 3944, 3664, 3196, 2704, 2374, 2196, 2050, 1890, 1747, 1663, 1615, 1587, 1578, 1583, 1583, 1587, 1598, 1610, 1624, 1643, 1672, 1694, 1705, 1710, 1723, 1738, 1756, 1768, 1780, 1799, 1808, 1811, 1822, 1849, 1868, 1895, 1940, 1981, 2000, 2010, 2021, 2016, 1998, 1981, 1975, 1973, 1966, 1956, 1953, 1948, 1917, 1875, 1852, 1846, 1833, 1822, 1829, 1834, 1815, 1798, 1805, 1825, 1838, 1857, 1878, 1894, 1893, 1893, 1899, 1908, 1912, 1914, 1920, 1928, 1928, 1918, 1914, 1912, 1906, 1900, 1907, 1914, 1913, 1883, 1868, 1859, 1853, 1850, 1870, 1882, 1889, 1888, 1896, 1915, 1933, 1947, 1971, 2002, 2018, 2009, 2000, 2007, 2020, 2036, 2066, 2097, 2099, 2069, 2032, 1999, 1962, 1920, 1892, 1874, 1864, 1857, 1857, 1865, 1870, 1855, 1837, 1834, 1832, 1823, 1823, 1829, 1833, 1828, 1834, 1844, 1858, 1852, 1838, 1834, 1888, 2057, 2399, 2958, 3575, 3953, 3999, 3790, 3354, 2821, 2415, 2178, 2008, 1846, 1700, 1606, 1563, 1542, 1527, 1520, 